#Raman spectra
#Laser energy   2.33 eV
#Raman shift (cm-1), Raman Spectra (XX,YY,ZZ,s+s+,s-s-,XY,YX,s+s-,s-s+)
   350.0000  0.95907760E+002  0.94462729E+002  0.72880603E+002  0.69004824E+002  0.68638304E+002  0.25993831E+002  0.25485263E+002  0.52116801E+002  0.52089654E+002
   350.2506  0.96972713E+002  0.95511648E+002  0.73574581E+002  0.69661967E+002  0.69292067E+002  0.26389589E+002  0.25873242E+002  0.52910357E+002  0.52882800E+002
   350.5013  0.98056499E+002  0.96579117E+002  0.74278517E+002  0.70328545E+002  0.69955216E+002  0.26794495E+002  0.26270189E+002  0.53722256E+002  0.53694282E+002
   350.7519  0.99159589E+002  0.97665601E+002  0.74992604E+002  0.71004737E+002  0.70627934E+002  0.27208834E+002  0.26676383E+002  0.54553069E+002  0.54524667E+002
   351.0025  0.10028247E+003  0.98771581E+002  0.75717038E+002  0.71690729E+002  0.71310405E+002  0.27632900E+002  0.27092113E+002  0.55403387E+002  0.55374546E+002
   351.2531  0.10142566E+003  0.99897555E+002  0.76452019E+002  0.72386713E+002  0.72002819E+002  0.28066999E+002  0.27517680E+002  0.56273823E+002  0.56244535E+002
   351.5038  0.10258966E+003  0.10104403E+003  0.77197754E+002  0.73092882E+002  0.72705368E+002  0.28511451E+002  0.27953396E+002  0.57165017E+002  0.57135270E+002
   351.7544  0.10377502E+003  0.10221155E+003  0.77954452E+002  0.73809437E+002  0.73418254E+002  0.28966587E+002  0.28399585E+002  0.58077633E+002  0.58047416E+002
   352.0050  0.10498229E+003  0.10340066E+003  0.78722330E+002  0.74536583E+002  0.74141678E+002  0.29432750E+002  0.28856586E+002  0.59012362E+002  0.58981664E+002
   352.2556  0.10621206E+003  0.10461192E+003  0.79501608E+002  0.75274528E+002  0.74875850E+002  0.29910301E+002  0.29324750E+002  0.59969923E+002  0.59938733E+002
   352.5063  0.10746492E+003  0.10584593E+003  0.80292515E+002  0.76023488E+002  0.75620984E+002  0.30399611E+002  0.29804443E+002  0.60951066E+002  0.60919371E+002
   352.7569  0.10874150E+003  0.10710329E+003  0.81095281E+002  0.76783682E+002  0.76377299E+002  0.30901071E+002  0.30296046E+002  0.61956568E+002  0.61924356E+002
   353.0075  0.11004242E+003  0.10838464E+003  0.81910146E+002  0.77555338E+002  0.77145020E+002  0.31415085E+002  0.30799957E+002  0.62987244E+002  0.62954502E+002
   353.2581  0.11136836E+003  0.10969063E+003  0.82737353E+002  0.78338686E+002  0.77924378E+002  0.31942075E+002  0.31316589E+002  0.64043938E+002  0.64010652E+002
   353.5088  0.11272000E+003  0.11102194E+003  0.83577153E+002  0.79133964E+002  0.78715608E+002  0.32482481E+002  0.31846373E+002  0.65127532E+002  0.65093690E+002
   353.7594  0.11409806E+003  0.11237926E+003  0.84429803E+002  0.79941415E+002  0.79518954E+002  0.33036761E+002  0.32389759E+002  0.66238946E+002  0.66204533E+002
   354.0100  0.11550328E+003  0.11376334E+003  0.85295567E+002  0.80761290E+002  0.80334664E+002  0.33605394E+002  0.32947216E+002  0.67379140E+002  0.67344141E+002
   354.2607  0.11693643E+003  0.11517493E+003  0.86174713E+002  0.81593843E+002  0.81162993E+002  0.34188879E+002  0.33519233E+002  0.68549114E+002  0.68513514E+002
   354.5113  0.11839829E+003  0.11661480E+003  0.87067520E+002  0.82439337E+002  0.82004203E+002  0.34787736E+002  0.34106320E+002  0.69749912E+002  0.69713696E+002
   354.7619  0.11988970E+003  0.11808378E+003  0.87974272E+002  0.83298044E+002  0.82858562E+002  0.35402511E+002  0.34709012E+002  0.70982626E+002  0.70945776E+002
   355.0125  0.12141152E+003  0.11958272E+003  0.88895261E+002  0.84170238E+002  0.83726345E+002  0.36033771E+002  0.35327865E+002  0.72248395E+002  0.72210895E+002
   355.2632  0.12296464E+003  0.12111248E+003  0.89830785E+002  0.85056204E+002  0.84607837E+002  0.36682110E+002  0.35963461E+002  0.73548410E+002  0.73510243E+002
   355.5138  0.12454999E+003  0.12267399E+003  0.90781154E+002  0.85956234E+002  0.85503325E+002  0.37348149E+002  0.36616410E+002  0.74883915E+002  0.74845062E+002
   355.7644  0.12616853E+003  0.12426819E+003  0.91746681E+002  0.86870626E+002  0.86413110E+002  0.38032537E+002  0.37287347E+002  0.76256212E+002  0.76216655E+002
   356.0150  0.12782127E+003  0.12589607E+003  0.92727691E+002  0.87799688E+002  0.87337497E+002  0.38735953E+002  0.37976939E+002  0.77666663E+002  0.77626382E+002
   356.2657  0.12950924E+003  0.12755867E+003  0.93724518E+002  0.88743735E+002  0.88276799E+002  0.39459109E+002  0.38685881E+002  0.79116693E+002  0.79075669E+002
   356.5163  0.13123354E+003  0.12925704E+003  0.94737501E+002  0.89703092E+002  0.89231340E+002  0.40202748E+002  0.39414905E+002  0.80607796E+002  0.80566007E+002
   356.7669  0.13299529E+003  0.13099232E+003  0.95766994E+002  0.90678091E+002  0.90201452E+002  0.40967651E+002  0.40164775E+002  0.82141534E+002  0.82098959E+002
   357.0175  0.13479569E+003  0.13276565E+003  0.96813355E+002  0.91669073E+002  0.91187474E+002  0.41754634E+002  0.40936291E+002  0.83719547E+002  0.83676163E+002
   357.2682  0.13663594E+003  0.13457824E+003  0.97876955E+002  0.92676391E+002  0.92189757E+002  0.42564554E+002  0.41730294E+002  0.85343551E+002  0.85299334E+002
   357.5188  0.13851735E+003  0.13643137E+003  0.98958175E+002  0.93700406E+002  0.93208660E+002  0.43398311E+002  0.42547664E+002  0.87015349E+002  0.86970276E+002
   357.7694  0.14044123E+003  0.13832634E+003  0.10005741E+003  0.94741487E+002  0.94244554E+002  0.44256847E+002  0.43389327E+002  0.88736832E+002  0.88690877E+002
   358.0201  0.14240900E+003  0.14026454E+003  0.10117505E+003  0.95800017E+002  0.95297817E+002  0.45141152E+002  0.44256252E+002  0.90509985E+002  0.90463122E+002
   358.2707  0.14442210E+003  0.14224739E+003  0.10231152E+003  0.96876388E+002  0.96368841E+002  0.46052266E+002  0.45149460E+002  0.92336894E+002  0.92289095E+002
   358.5213  0.14648206E+003  0.14427640E+003  0.10346724E+003  0.97971003E+002  0.97458028E+002  0.46991282E+002  0.46070022E+002  0.94219749E+002  0.94170986E+002
   358.7719  0.14859047E+003  0.14635314E+003  0.10464266E+003  0.99084277E+002  0.98565790E+002  0.47959350E+002  0.47019064E+002  0.96160855E+002  0.96111098E+002
   359.0226  0.15074899E+003  0.14847923E+003  0.10583821E+003  0.10021664E+003  0.99692552E+002  0.48957678E+002  0.47997772E+002  0.98162636E+002  0.98111854E+002
   359.2732  0.15295937E+003  0.15065641E+003  0.10705436E+003  0.10136852E+003  0.10083875E+003  0.49987538E+002  0.49007392E+002  0.10022764E+003  0.10017580E+003
   359.5238  0.15522343E+003  0.15288646E+003  0.10829158E+003  0.10254038E+003  0.10200484E+003  0.51050270E+002  0.50049238E+002  0.10235856E+003  0.10230563E+003
   359.7744  0.15754308E+003  0.15517127E+003  0.10955037E+003  0.10373267E+003  0.10319128E+003  0.52147286E+002  0.51124695E+002  0.10455822E+003  0.10450416E+003
   360.0251  0.15992032E+003  0.15751281E+003  0.11083124E+003  0.10494589E+003  0.10439855E+003  0.53280073E+002  0.52235219E+002  0.10682960E+003  0.10677439E+003
   360.2757  0.16235725E+003  0.15991315E+003  0.11213469E+003  0.10618051E+003  0.10562713E+003  0.54450201E+002  0.53382351E+002  0.10917586E+003  0.10911944E+003
   360.5263  0.16485606E+003  0.16237445E+003  0.11346126E+003  0.10743706E+003  0.10687754E+003  0.55659327E+002  0.54567713E+002  0.11160031E+003  0.11154265E+003
   360.7769  0.16741909E+003  0.16489899E+003  0.11481151E+003  0.10871604E+003  0.10815029E+003  0.56909198E+002  0.55793021E+002  0.11410645E+003  0.11404752E+003
   361.0276  0.17004874E+003  0.16748917E+003  0.11618600E+003  0.11001800E+003  0.10944592E+003  0.58201664E+002  0.57060086E+002  0.11669800E+003  0.11663774E+003
   361.2782  0.17274759E+003  0.17014751E+003  0.11758530E+003  0.11134349E+003  0.11076498E+003  0.59538677E+002  0.58370823E+002  0.11937888E+003  0.11931725E+003
   361.5288  0.17551831E+003  0.17287664E+003  0.11901003E+003  0.11269308E+003  0.11210804E+003  0.60922305E+002  0.59727259E+002  0.12215322E+003  0.12209017E+003
   361.7794  0.17836372E+003  0.17567935E+003  0.12046081E+003  0.11406736E+003  0.11347569E+003  0.62354736E+002  0.61131539E+002  0.12502541E+003  0.12496090E+003
   362.0301  0.18128682E+003  0.17855859E+003  0.12193826E+003  0.11546693E+003  0.11486853E+003  0.63838288E+002  0.62585934E+002  0.12800010E+003  0.12793407E+003
   362.2807  0.18429074E+003  0.18151743E+003  0.12344306E+003  0.11689242E+003  0.11628718E+003  0.65375415E+002  0.64092853E+002  0.13108222E+003  0.13101461E+003
   362.5313  0.18737878E+003  0.18455915E+003  0.12497587E+003  0.11834448E+003  0.11773229E+003  0.66968725E+002  0.65654850E+002  0.13427699E+003  0.13420775E+003
   362.7820  0.19055445E+003  0.18768718E+003  0.12653739E+003  0.11982377E+003  0.11920452E+003  0.68620983E+002  0.67274636E+002  0.13758994E+003  0.13751901E+003
   363.0326  0.19382143E+003  0.19090515E+003  0.12812836E+003  0.12133097E+003  0.12070455E+003  0.70335126E+002  0.68955091E+002  0.14102699E+003  0.14095430E+003
   363.2832  0.19718363E+003  0.19421693E+003  0.12974951E+003  0.12286678E+003  0.12223309E+003  0.72114276E+002  0.70699276E+002  0.14459437E+003  0.14451987E+003
   363.5338  0.20064518E+003  0.19762656E+003  0.13140160E+003  0.12443195E+003  0.12379087E+003  0.73961755E+002  0.72510446E+002  0.14829876E+003  0.14822236E+003
   363.7845  0.20421044E+003  0.20113836E+003  0.13308544E+003  0.12602723E+003  0.12537863E+003  0.75881097E+002  0.74392068E+002  0.15214723E+003  0.15206887E+003
   364.0351  0.20788404E+003  0.20475689E+003  0.13480184E+003  0.12765338E+003  0.12699715E+003  0.77876070E+002  0.76347834E+002  0.15614735E+003  0.15606695E+003
   364.2857  0.21167091E+003  0.20848698E+003  0.13655165E+003  0.12931121E+003  0.12864724E+003  0.79950690E+002  0.78381682E+002  0.16030716E+003  0.16022464E+003
   364.5363  0.21557625E+003  0.21233378E+003  0.13833573E+003  0.13100156E+003  0.13032972E+003  0.82109243E+002  0.80497812E+002  0.16463526E+003  0.16455054E+003
   364.7870  0.21960560E+003  0.21630274E+003  0.14015499E+003  0.13272528E+003  0.13204545E+003  0.84356304E+002  0.82700712E+002  0.16914082E+003  0.16905380E+003
   365.0376  0.22376485E+003  0.22039966E+003  0.14201036E+003  0.13448324E+003  0.13379531E+003  0.86696767E+002  0.84995178E+002  0.17383366E+003  0.17374424E+003
   365.2882  0.22806027E+003  0.22463072E+003  0.14390279E+003  0.13627638E+003  0.13558021E+003  0.89135865E+002  0.87386340E+002  0.17872425E+003  0.17863235E+003
   365.5388  0.23249854E+003  0.22900249E+003  0.14583329E+003  0.13810562E+003  0.13740109E+003  0.91679204E+002  0.89879695E+002  0.18382386E+003  0.18372935E+003
   365.7895  0.23708678E+003  0.23352200E+003  0.14780288E+003  0.13997196E+003  0.13925894E+003  0.94332791E+002  0.92481131E+002  0.18914451E+003  0.18904729E+003
   366.0401  0.24183260E+003  0.23819673E+003  0.14981262E+003  0.14187639E+003  0.14115476E+003  0.97103071E+002  0.95196966E+002  0.19469912E+003  0.19459908E+003
   366.2907  0.24674411E+003  0.24303469E+003  0.15186360E+003  0.14381997E+003  0.14308959E+003  0.99996966E+002  0.98033987E+002  0.20050159E+003  0.20039860E+003
   366.5414  0.25183002E+003  0.24804444E+003  0.15395698E+003  0.14580378E+003  0.14506452E+003  0.10302192E+003  0.10099949E+003  0.20656682E+003  0.20646074E+003
   366.7920  0.25709963E+003  0.25323515E+003  0.15609391E+003  0.14782893E+003  0.14708067E+003  0.10618593E+003  0.10410132E+003  0.21291087E+003  0.21280156E+003
   367.0426  0.26256293E+003  0.25861666E+003  0.15827562E+003  0.14989658E+003  0.14913919E+003  0.10949763E+003  0.10734794E+003  0.21955104E+003  0.21943835E+003
   367.2932  0.26823062E+003  0.26419951E+003  0.16050337E+003  0.15200794E+003  0.15124128E+003  0.11296633E+003  0.11074846E+003  0.22650597E+003  0.22638974E+003
   367.5439  0.27411422E+003  0.26999506E+003  0.16277845E+003  0.15416424E+003  0.15338819E+003  0.11660207E+003  0.11431274E+003  0.23379580E+003  0.23367586E+003
   367.7945  0.28022613E+003  0.27601551E+003  0.16510222E+003  0.15636677E+003  0.15558120E+003  0.12041570E+003  0.11805142E+003  0.24144231E+003  0.24131848E+003
   368.0451  0.28657969E+003  0.28227401E+003  0.16747608E+003  0.15861686E+003  0.15782165E+003  0.12441898E+003  0.12197602E+003  0.24946905E+003  0.24934114E+003
   368.2957  0.29318932E+003  0.28878475E+003  0.16990148E+003  0.16091591E+003  0.16011092E+003  0.12862463E+003  0.12609903E+003  0.25790155E+003  0.25776935E+003
   368.5464  0.30007056E+003  0.29556307E+003  0.17237991E+003  0.16326533E+003  0.16245044E+003  0.13304649E+003  0.13043398E+003  0.26676751E+003  0.26663081E+003
   368.7970  0.30724025E+003  0.30262554E+003  0.17491294E+003  0.16566662E+003  0.16484171E+003  0.13769955E+003  0.13499559E+003  0.27609703E+003  0.27595558E+003
   369.0476  0.31471664E+003  0.30999013E+003  0.17750218E+003  0.16812131E+003  0.16728627E+003  0.14260015E+003  0.13979988E+003  0.28592283E+003  0.28577638E+003
   369.2982  0.32251951E+003  0.31767634E+003  0.18014929E+003  0.17063101E+003  0.16978572E+003  0.14776608E+003  0.14486427E+003  0.29628059E+003  0.29612888E+003
   369.5489  0.33067037E+003  0.32570536E+003  0.18285603E+003  0.17319738E+003  0.17234173E+003  0.15321674E+003  0.15020781E+003  0.30720922E+003  0.30705195E+003
   369.7995  0.33919262E+003  0.33410025E+003  0.18562419E+003  0.17582214E+003  0.17495603E+003  0.15897335E+003  0.15585128E+003  0.31875123E+003  0.31858810E+003
   370.0501  0.34811179E+003  0.34288613E+003  0.18845563E+003  0.17850707E+003  0.17763041E+003  0.16505911E+003  0.16181743E+003  0.33095316E+003  0.33078382E+003
   370.3008  0.35745574E+003  0.35209048E+003  0.19135232E+003  0.18125406E+003  0.18036674E+003  0.17149946E+003  0.16813121E+003  0.34386599E+003  0.34369010E+003
   370.5514  0.36725497E+003  0.36174332E+003  0.19431626E+003  0.18406501E+003  0.18316697E+003  0.17832234E+003  0.17481999E+003  0.35754574E+003  0.35736290E+003
   370.8020  0.37754288E+003  0.37187758E+003  0.19734954E+003  0.18694195E+003  0.18603312E+003  0.18555847E+003  0.18191390E+003  0.37205399E+003  0.37186377E+003
   371.0526  0.38835618E+003  0.38252939E+003  0.20045436E+003  0.18988696E+003  0.18896729E+003  0.19324168E+003  0.18944611E+003  0.38745857E+003  0.38726054E+003
   371.3033  0.39973521E+003  0.39373853E+003  0.20363296E+003  0.19290223E+003  0.19197167E+003  0.20140935E+003  0.19745325E+003  0.40383440E+003  0.40362805E+003
   371.5539  0.41172449E+003  0.40554884E+003  0.20688772E+003  0.19599001E+003  0.19504854E+003  0.21010279E+003  0.20597583E+003  0.42126430E+003  0.42104910E+003
   371.8045  0.42437318E+003  0.41800873E+003  0.21022107E+003  0.19915266E+003  0.19820029E+003  0.21936779E+003  0.21505874E+003  0.43984006E+003  0.43961542E+003
   372.0551  0.43773569E+003  0.43117184E+003  0.21363556E+003  0.20239264E+003  0.20142938E+003  0.22925519E+003  0.22475181E+003  0.45966360E+003  0.45942890E+003
   372.3058  0.45187241E+003  0.44509764E+003  0.21713386E+003  0.20571251E+003  0.20473841E+003  0.23982157E+003  0.23511051E+003  0.48084834E+003  0.48060288E+003
   372.5564  0.46685051E+003  0.45985230E+003  0.22071872E+003  0.20911493E+003  0.20813007E+003  0.25113002E+003  0.24619671E+003  0.50352076E+003  0.50326379E+003
   372.8070  0.48274486E+003  0.47550959E+003  0.22439301E+003  0.21260268E+003  0.21160718E+003  0.26325110E+003  0.25807955E+003  0.52782227E+003  0.52755296E+003
   373.0576  0.49963915E+003  0.49215195E+003  0.22815974E+003  0.21617868E+003  0.21517269E+003  0.27626383E+003  0.27083653E+003  0.55391132E+003  0.55362876E+003
   373.3083  0.51762715E+003  0.50987176E+003  0.23202203E+003  0.21984595E+003  0.21882968E+003  0.29025702E+003  0.28455469E+003  0.58196589E+003  0.58166909E+003
   373.5589  0.53681424E+003  0.52877284E+003  0.23598313E+003  0.22360766E+003  0.22258137E+003  0.30533068E+003  0.29933208E+003  0.61218648E+003  0.61187433E+003
   373.8095  0.55731915E+003  0.54897215E+003  0.24004645E+003  0.22746712E+003  0.22643113E+003  0.32159776E+003  0.31527944E+003  0.64479948E+003  0.64447078E+003
   374.0602  0.57927609E+003  0.57060190E+003  0.24421552E+003  0.23142779E+003  0.23038250E+003  0.33918620E+003  0.33252219E+003  0.68006135E+003  0.67971474E+003
   374.3108  0.60283716E+003  0.59381196E+003  0.24849405E+003  0.23549329E+003  0.23443919E+003  0.35824131E+003  0.35120278E+003  0.71826337E+003  0.71789736E+003
   374.5614  0.62817538E+003  0.61877275E+003  0.25288588E+003  0.23966743E+003  0.23860510E+003  0.37892871E+003  0.37148358E+003  0.75973748E+003  0.75935041E+003
   374.8120  0.65548815E+003  0.64567875E+003  0.25739507E+003  0.24395417E+003  0.24288431E+003  0.40143769E+003  0.39355015E+003  0.80486312E+003  0.80445314E+003
   375.0627  0.68500150E+003  0.67475263E+003  0.26202582E+003  0.24835770E+003  0.24728113E+003  0.42598540E+003  0.41761538E+003  0.85407553E+003  0.85364055E+003
   375.3133  0.71697517E+003  0.70625030E+003  0.26678253E+003  0.25288238E+003  0.25180011E+003  0.45282178E+003  0.44392430E+003  0.90787569E+003  0.90741338E+003
   375.5639  0.75170881E+003  0.74046693E+003  0.27166981E+003  0.25753283E+003  0.25644602E+003  0.48223562E+003  0.47276001E+003  0.96684239E+003  0.96635013E+003
   375.8145  0.78954941E+003  0.77774438E+003  0.27669248E+003  0.26231389E+003  0.26122394E+003  0.51456182E+003  0.50445085E+003  0.10316469E+004  0.10311217E+004
   376.0652  0.83090050E+003  0.81848018E+003  0.28185558E+003  0.26723066E+003  0.26613922E+003  0.55019041E+003  0.53937916E+003  0.11030709E+004  0.11025094E+004
   376.3158  0.87623333E+003  0.86313859E+003  0.28716439E+003  0.27228853E+003  0.27119755E+003  0.58957743E+003  0.57799203E+003  0.11820285E+004  0.11814268E+004
   376.5664  0.92610077E+003  0.91226427E+003  0.29262444E+003  0.27749318E+003  0.27640497E+003  0.63325854E+003  0.62081459E+003  0.12695931E+004  0.12689470E+004
   376.8170  0.98115439E+003  0.96649913E+003  0.29824151E+003  0.28285063E+003  0.28176792E+003  0.68186576E+003  0.66846644E+003  0.13670314E+004  0.13663358E+004
   377.0677  0.10421659E+004  0.10266034E+004  0.30402168E+003  0.28836726E+003  0.28729331E+003  0.73614837E+003  0.72168211E+003  0.14758451E+004  0.14750941E+004
   377.3183  0.11100538E+004  0.10934820E+004  0.30997132E+003  0.29404986E+003  0.29298852E+003  0.79699903E+003  0.78133675E+003  0.15978231E+004  0.15970101E+004
   377.5689  0.11859171E+004  0.11682176E+004  0.31609711E+003  0.29990567E+003  0.29886154E+003  0.86548673E+003  0.84847831E+003  0.17351077E+004  0.17342248E+004
   377.8195  0.12710778E+004  0.12521125E+004  0.32240607E+003  0.30594241E+003  0.30492098E+003  0.94289831E+003  0.92436835E+003  0.18902777E+004  0.18893158E+004
   378.0702  0.13671345E+004  0.13467418E+004  0.32890557E+003  0.31216838E+003  0.31117624E+003  0.10307912E+004  0.10105337E+004  0.20664541E+004  0.20654024E+004
   378.3208  0.14760315E+004  0.14540207E+004  0.33560333E+003  0.31859252E+003  0.31763758E+003  0.11310605E+004  0.11088322E+004  0.22674344E+004  0.22662804E+004
   378.5714  0.16001460E+004  0.15762912E+004  0.34250751E+003  0.32522450E+003  0.32431630E+003  0.12460247E+004  0.12215367E+004  0.24978647E+004  0.24965932E+004
   378.8221  0.17423997E+004  0.17164318E+004  0.34962666E+003  0.33207484E+003  0.33122495E+003  0.13785352E+004  0.13514426E+004  0.27634582E+004  0.27620513E+004
   379.0727  0.19064018E+004  0.18779979E+004  0.35696979E+003  0.33915506E+003  0.33837755E+003  0.15321152E+004  0.15020040E+004  0.30712751E+004  0.30697111E+004
   379.3233  0.20966289E+004  0.20653997E+004  0.36454639E+003  0.34647786E+003  0.34578991E+003  0.17111368E+004  0.16775068E+004  0.34300758E+004  0.34283286E+004
   379.5739  0.23186504E+004  0.22841242E+004  0.37236645E+003  0.35405731E+003  0.35348000E+003  0.19210412E+004  0.18832855E+004  0.38507630E+004  0.38488010E+004
   379.8246  0.25794039E+004  0.25410058E+004  0.38044050E+003  0.36190914E+003  0.36146839E+003  0.21686080E+004  0.21259863E+004  0.43469210E+004  0.43447054E+004
