#Raman spectra
#Laser energy   2.33 eV
#Raman shift (cm-1), Raman Spectra (XX,YY,ZZ,s+s+,s-s-,XY,YX,s+s-,s-s+)
  1500.0000  0.53174219E+003  0.53235707E+003  0.16646207E-003  0.41681937E-001  0.41660632E-001  0.53159832E+003  0.53159418E+003  0.10635859E+004  0.10636225E+004
  1500.2506  0.53866985E+003  0.53929275E+003  0.16863081E-003  0.42224979E-001  0.42203397E-001  0.53852425E+003  0.53852006E+003  0.10774427E+004  0.10774798E+004
  1500.5013  0.54573369E+003  0.54636476E+003  0.17084218E-003  0.42778697E-001  0.42756832E-001  0.54558635E+003  0.54558209E+003  0.10915719E+004  0.10916095E+004
  1500.7519  0.55293732E+003  0.55357672E+003  0.17309731E-003  0.43343373E-001  0.43321218E-001  0.55278819E+003  0.55278388E+003  0.11059807E+004  0.11060188E+004
  1501.0025  0.56028444E+003  0.56093233E+003  0.17539736E-003  0.43919296E-001  0.43896847E-001  0.56013349E+003  0.56012912E+003  0.11206765E+004  0.11207151E+004
  1501.2531  0.56777888E+003  0.56843544E+003  0.17774353E-003  0.44506768E-001  0.44484018E-001  0.56762607E+003  0.56762165E+003  0.11356670E+004  0.11357061E+004
  1501.5038  0.57542461E+003  0.57609001E+003  0.18013707E-003  0.45106099E-001  0.45083042E-001  0.57526992E+003  0.57526543E+003  0.11509601E+004  0.11509997E+004
  1501.7544  0.58322572E+003  0.58390014E+003  0.18257925E-003  0.45717610E-001  0.45694240E-001  0.58306911E+003  0.58306456E+003  0.11665640E+004  0.11666041E+004
  1502.0050  0.59118646E+003  0.59187008E+003  0.18507140E-003  0.46341634E-001  0.46317945E-001  0.59102788E+003  0.59102328E+003  0.11824872E+004  0.11825279E+004
  1502.2556  0.59931119E+003  0.60000421E+003  0.18761489E-003  0.46978514E-001  0.46954498E-001  0.59915062E+003  0.59914595E+003  0.11987384E+004  0.11987797E+004
  1502.5063  0.60760446E+003  0.60830707E+003  0.19021114E-003  0.47628605E-001  0.47604257E-001  0.60744186E+003  0.60743713E+003  0.12153267E+004  0.12153686E+004
  1502.7569  0.61607095E+003  0.61678336E+003  0.19286163E-003  0.48292275E-001  0.48267587E-001  0.61590629E+003  0.61590148E+003  0.12322615E+004  0.12323040E+004
  1503.0075  0.62471553E+003  0.62543793E+003  0.19556786E-003  0.48969904E-001  0.48944869E-001  0.62454875E+003  0.62454388E+003  0.12495526E+004  0.12495956E+004
  1503.2581  0.63354321E+003  0.63427582E+003  0.19833142E-003  0.49661887E-001  0.49636498E-001  0.63337428E+003  0.63336935E+003  0.12672099E+004  0.12672535E+004
  1503.5088  0.64255920E+003  0.64330223E+003  0.20115393E-003  0.50368631E-001  0.50342880E-001  0.64238808E+003  0.64238308E+003  0.12852438E+004  0.12852881E+004
  1503.7594  0.65176889E+003  0.65252258E+003  0.20403708E-003  0.51090559E-001  0.51064439E-001  0.65159554E+003  0.65159046E+003  0.13036652E+004  0.13037101E+004
  1504.0100  0.66117787E+003  0.66194244E+003  0.20698262E-003  0.51828110E-001  0.51801612E-001  0.66100224E+003  0.66099709E+003  0.13224852E+004  0.13225308E+004
  1504.2607  0.67079193E+003  0.67156760E+003  0.20999236E-003  0.52581735E-001  0.52554852E-001  0.67061397E+003  0.67060875E+003  0.13417154E+004  0.13417617E+004
  1504.5113  0.68061705E+003  0.68140409E+003  0.21306818E-003  0.53351906E-001  0.53324629E-001  0.68043673E+003  0.68043143E+003  0.13613679E+004  0.13614148E+004
  1504.7619  0.69065946E+003  0.69145812E+003  0.21621202E-003  0.54139111E-001  0.54111430E-001  0.69047673E+003  0.69047135E+003  0.13814549E+004  0.13815025E+004
  1505.0125  0.70092562E+003  0.70173614E+003  0.21942591E-003  0.54943854E-001  0.54915762E-001  0.70074042E+003  0.70073496E+003  0.14019895E+004  0.14020378E+004
  1505.2632  0.71142221E+003  0.71224487E+003  0.22271194E-003  0.55766661E-001  0.55738147E-001  0.71123450E+003  0.71122895E+003  0.14229850E+004  0.14230340E+004
  1505.5138  0.72215617E+003  0.72299124E+003  0.22607228E-003  0.56608075E-001  0.56579131E-001  0.72196590E+003  0.72196027E+003  0.14444553E+004  0.14445051E+004
  1505.7644  0.73313471E+003  0.73398248E+003  0.22950919E-003  0.57468662E-001  0.57439277E-001  0.73294182E+003  0.73293611E+003  0.14664148E+004  0.14664654E+004
  1506.0150  0.74436532E+003  0.74522607E+003  0.23302502E-003  0.58349008E-001  0.58319173E-001  0.74416976E+003  0.74416396E+003  0.14888786E+004  0.14889299E+004
  1506.2657  0.75585575E+003  0.75672980E+003  0.23662218E-003  0.59249722E-001  0.59219425E-001  0.75565747E+003  0.75565158E+003  0.15118620E+004  0.15119141E+004
  1506.5163  0.76761409E+003  0.76850173E+003  0.24030322E-003  0.60171436E-001  0.60140668E-001  0.76741303E+003  0.76740705E+003  0.15353813E+004  0.15354343E+004
  1506.7669  0.77964872E+003  0.78055028E+003  0.24407075E-003  0.61114809E-001  0.61083558E-001  0.77944482E+003  0.77943874E+003  0.15594533E+004  0.15595071E+004
  1507.0175  0.79196835E+003  0.79288415E+003  0.24792751E-003  0.62080523E-001  0.62048777E-001  0.79176155E+003  0.79175538E+003  0.15840953E+004  0.15841500E+004
  1507.2682  0.80458205E+003  0.80551244E+003  0.25187633E-003  0.63069289E-001  0.63037037E-001  0.80437229E+003  0.80436602E+003  0.16093256E+004  0.16093811E+004
  1507.5188  0.81749925E+003  0.81844457E+003  0.25592016E-003  0.64081845E-001  0.64049075E-001  0.81728646E+003  0.81728009E+003  0.16351629E+004  0.16352193E+004
  1507.7694  0.83072974E+003  0.83169037E+003  0.26006208E-003  0.65118961E-001  0.65085660E-001  0.83051387E+003  0.83050739E+003  0.16616269E+004  0.16616842E+004
  1508.0201  0.84428374E+003  0.84526004E+003  0.26430527E-003  0.66181436E-001  0.66147591E-001  0.84406471E+003  0.84405813E+003  0.16887380E+004  0.16887963E+004
  1508.2707  0.85817187E+003  0.85916423E+003  0.26865307E-003  0.67270104E-001  0.67235702E-001  0.85794962E+003  0.85794293E+003  0.17165174E+004  0.17165767E+004
  1508.5213  0.87240519E+003  0.87341401E+003  0.27310893E-003  0.68385830E-001  0.68350857E-001  0.87217964E+003  0.87217284E+003  0.17449874E+004  0.17450476E+004
  1508.7719  0.88699522E+003  0.88802091E+003  0.27767647E-003  0.69529520E-001  0.69493961E-001  0.88676631E+003  0.88675940E+003  0.17741708E+004  0.17742320E+004
  1509.0226  0.90195398E+003  0.90299697E+003  0.28235945E-003  0.70702114E-001  0.70665955E-001  0.90172162E+003  0.90171460E+003  0.18040918E+004  0.18041540E+004
  1509.2732  0.91729398E+003  0.91835470E+003  0.28716177E-003  0.71904593E-001  0.71867818E-001  0.91705810E+003  0.91705096E+003  0.18347753E+004  0.18348387E+004
  1509.5238  0.93302827E+003  0.93410719E+003  0.29208754E-003  0.73137980E-001  0.73100575E-001  0.93278880E+003  0.93278153E+003  0.18662476E+004  0.18663120E+004
  1509.7744  0.94917047E+003  0.95026806E+003  0.29714101E-003  0.74403344E-001  0.74365291E-001  0.94892732E+003  0.94891992E+003  0.18985357E+004  0.18986013E+004
  1510.0251  0.96573479E+003  0.96685153E+003  0.30232663E-003  0.75701797E-001  0.75663079E-001  0.96548787E+003  0.96548035E+003  0.19316682E+004  0.19317350E+004
  1510.2757  0.98273606E+003  0.98387246E+003  0.30764905E-003  0.77034503E-001  0.76995103E-001  0.98248529E+003  0.98247763E+003  0.19656748E+004  0.19657427E+004
  1510.5263  0.10001898E+004  0.10013463E+004  0.31311310E-003  0.78402675E-001  0.78362574E-001  0.99993505E+003  0.99992726E+003  0.20005863E+004  0.20006554E+004
  1510.7769  0.10181121E+004  0.10192894E+004  0.31872387E-003  0.79807581E-001  0.79766762E-001  0.10178533E+004  0.10178454E+004  0.20364351E+004  0.20365055E+004
  1511.0276  0.10365199E+004  0.10377185E+004  0.32448663E-003  0.81250548E-001  0.81208990E-001  0.10362571E+004  0.10362490E+004  0.20732552E+004  0.20733268E+004
  1511.2782  0.10554310E+004  0.10566514E+004  0.33040693E-003  0.82732960E-001  0.82690643E-001  0.10551639E+004  0.10551556E+004  0.21110817E+004  0.21111547E+004
  1511.5288  0.10748637E+004  0.10761066E+004  0.33649056E-003  0.84256268E-001  0.84213171E-001  0.10745923E+004  0.10745839E+004  0.21499518E+004  0.21500262E+004
  1511.7794  0.10948374E+004  0.10961035E+004  0.34274356E-003  0.85821987E-001  0.85778089E-001  0.10945616E+004  0.10945531E+004  0.21899041E+004  0.21899798E+004
  1512.0301  0.11153725E+004  0.11166622E+004  0.34917228E-003  0.87431704E-001  0.87386982E-001  0.11150921E+004  0.11150834E+004  0.22309791E+004  0.22310563E+004
  1512.2807  0.11364900E+004  0.11378042E+004  0.35578336E-003  0.89087082E-001  0.89041513E-001  0.11362049E+004  0.11361961E+004  0.22732192E+004  0.22732978E+004
  1512.5313  0.11582122E+004  0.11595515E+004  0.36258374E-003  0.90789862E-001  0.90743421E-001  0.11579224E+004  0.11579134E+004  0.23166689E+004  0.23167490E+004
  1512.7820  0.11805623E+004  0.11819275E+004  0.36958073E-003  0.92541868E-001  0.92494531E-001  0.11802677E+004  0.11802585E+004  0.23613746E+004  0.23614563E+004
  1513.0326  0.12035649E+004  0.12049566E+004  0.37678195E-003  0.94345015E-001  0.94296754E-001  0.12032652E+004  0.12032558E+004  0.24073853E+004  0.24074686E+004
  1513.2832  0.12272454E+004  0.12286645E+004  0.38419543E-003  0.96201308E-001  0.96152097E-001  0.12269406E+004  0.12269311E+004  0.24547522E+004  0.24548371E+004
  1513.5338  0.12516308E+004  0.12530781E+004  0.39182957E-003  0.98112855E-001  0.98062666E-001  0.12513207E+004  0.12513110E+004  0.25035289E+004  0.25036155E+004
  1513.7845  0.12767492E+004  0.12782256E+004  0.39969322E-003  0.10008187E+000  0.10003067E+000  0.12764338E+004  0.12764238E+004  0.25537720E+004  0.25538604E+004
  1514.0351  0.13026303E+004  0.13041367E+004  0.40779564E-003  0.10211067E+000  0.10205843E+000  0.13023094E+004  0.13022992E+004  0.26055406E+004  0.26056308E+004
  1514.2857  0.13293053E+004  0.13308425E+004  0.41614660E-003  0.10420170E+000  0.10414839E+000  0.13289787E+004  0.13289684E+004  0.26588972E+004  0.26589893E+004
  1514.5363  0.13568069E+004  0.13583759E+004  0.42475634E-003  0.10635753E+000  0.10630312E+000  0.13564745E+004  0.13564639E+004  0.27139073E+004  0.27140013E+004
  1514.7870  0.13851696E+004  0.13867713E+004  0.43363565E-003  0.10858086E+000  0.10852531E+000  0.13848312E+004  0.13848204E+004  0.27706397E+004  0.27707357E+004
  1515.0376  0.14144296E+004  0.14160651E+004  0.44279589E-003  0.11087453E+000  0.11081781E+000  0.14140850E+004  0.14140740E+004  0.28291670E+004  0.28292650E+004
  1515.2882  0.14446251E+004  0.14462956E+004  0.45224902E-003  0.11324154E+000  0.11318360E+000  0.14442742E+004  0.14442630E+004  0.28895656E+004  0.28896658E+004
  1515.5388  0.14757963E+004  0.14775029E+004  0.46200764E-003  0.11568504E+000  0.11562585E+000  0.14754390E+004  0.14754275E+004  0.29519161E+004  0.29520184E+004
  1515.7895  0.15079858E+004  0.15097296E+004  0.47208502E-003  0.11820835E+000  0.11814788E+000  0.15076219E+004  0.15076101E+004  0.30163032E+004  0.30164078E+004
  1516.0401  0.15412382E+004  0.15430204E+004  0.48249518E-003  0.12081499E+000  0.12075318E+000  0.15408675E+004  0.15408555E+004  0.30828165E+004  0.30829234E+004
  1516.2907  0.15756008E+004  0.15774228E+004  0.49325292E-003  0.12350867E+000  0.12344548E+000  0.15752231E+004  0.15752108E+004  0.31515506E+004  0.31516599E+004
  1516.5414  0.16111235E+004  0.16129865E+004  0.50437384E-003  0.12629328E+000  0.12622866E+000  0.16107386E+004  0.16107260E+004  0.32226051E+004  0.32227169E+004
  1516.7920  0.16478589E+004  0.16497645E+004  0.51587446E-003  0.12917296E+000  0.12910687E+000  0.16474667E+004  0.16474538E+004  0.32960856E+004  0.32962000E+004
  1517.0426  0.16858629E+004  0.16878124E+004  0.52777223E-003  0.13215209E+000  0.13208447E+000  0.16854631E+004  0.16854499E+004  0.33721035E+004  0.33722206E+004
  1517.2932  0.17251945E+004  0.17271894E+004  0.54008560E-003  0.13523528E+000  0.13516609E+000  0.17247868E+004  0.17247733E+004  0.34507769E+004  0.34508967E+004
  1517.5439  0.17659159E+004  0.17679579E+004  0.55283413E-003  0.13842743E+000  0.13835660E+000  0.17655002E+004  0.17654864E+004  0.35322305E+004  0.35323532E+004
  1517.7945  0.18080934E+004  0.18101843E+004  0.56603852E-003  0.14173372E+000  0.14166120E+000  0.18076694E+004  0.18076554E+004  0.36165968E+004  0.36167223E+004
  1518.0451  0.18517972E+004  0.18539385E+004  0.57972073E-003  0.14515966E+000  0.14508539E+000  0.18513647E+004  0.18513502E+004  0.37040158E+004  0.37041445E+004
  1518.2957  0.18971015E+004  0.18992952E+004  0.59390404E-003  0.14871106E+000  0.14863498E+000  0.18966602E+004  0.18966454E+004  0.37946365E+004  0.37947684E+004
  1518.5464  0.19440853E+004  0.19463333E+004  0.60861316E-003  0.15239413E+000  0.15231616E+000  0.19436350E+004  0.19436199E+004  0.38886168E+004  0.38887519E+004
  1518.7970  0.19928324E+004  0.19951369E+004  0.62387437E-003  0.15621543E+000  0.15613550E+000  0.19923729E+004  0.19923574E+004  0.39861244E+004  0.39862629E+004
  1519.0476  0.20434322E+004  0.20457951E+004  0.63971556E-003  0.16018196E+000  0.16010000E+000  0.20429631E+004  0.20429472E+004  0.40873376E+004  0.40874797E+004
  1519.2982  0.20959793E+004  0.20984030E+004  0.65616644E-003  0.16430115E+000  0.16421708E+000  0.20955004E+004  0.20954841E+004  0.41924462E+004  0.41925921E+004
  1519.5489  0.21505748E+004  0.21530617E+004  0.67325863E-003  0.16858091E+000  0.16849465E+000  0.21500858E+004  0.21500690E+004  0.43016523E+004  0.43018019E+004
  1519.7995  0.22073263E+004  0.22098788E+004  0.69102581E-003  0.17302969E+000  0.17294116E+000  0.22068269E+004  0.22068097E+004  0.44151710E+004  0.44153246E+004
  1520.0501  0.22663485E+004  0.22689692E+004  0.70950391E-003  0.17765648E+000  0.17756557E+000  0.22658383E+004  0.22658207E+004  0.45332319E+004  0.45333897E+004
  1520.3008  0.23277639E+004  0.23304557E+004  0.72873127E-003  0.18247087E+000  0.18237750E+000  0.23272427E+004  0.23272245E+004  0.46560799E+004  0.46562420E+004
  1520.5514  0.23917033E+004  0.23944690E+004  0.74874884E-003  0.18748313E+000  0.18738719E+000  0.23911706E+004  0.23911520E+004  0.47839767E+004  0.47841434E+004
  1520.8020  0.24583066E+004  0.24611492E+004  0.76960041E-003  0.19270421E+000  0.19260560E+000  0.24577621E+004  0.24577429E+004  0.49172021E+004  0.49173734E+004
  1521.0526  0.25277232E+004  0.25306462E+004  0.79133283E-003  0.19814584E+000  0.19804445E+000  0.25271666E+004  0.25271469E+004  0.50560553E+004  0.50562315E+004
  1521.3033  0.26001136E+004  0.26031203E+004  0.81399626E-003  0.20382060E+000  0.20371630E+000  0.25995445E+004  0.25995242E+004  0.52008569E+004  0.52010382E+004
  1521.5539  0.26756495E+004  0.26787436E+004  0.83764450E-003  0.20974194E+000  0.20963461E+000  0.26750675E+004  0.26750466E+004  0.53519506E+004  0.53521373E+004
  1521.8045  0.27545153E+004  0.27577005E+004  0.86233527E-003  0.21592431E+000  0.21581382E+000  0.27539199E+004  0.27538985E+004  0.55097051E+004  0.55098974E+004
  1522.0551  0.28369089E+004  0.28401894E+004  0.88813055E-003  0.22238325E+000  0.22226945E+000  0.28362998E+004  0.28362777E+004  0.56745166E+004  0.56747146E+004
  1522.3058  0.29230433E+004  0.29264234E+004  0.91509701E-003  0.22913544E+000  0.22901819E+000  0.29224200E+004  0.29223972E+004  0.58468109E+004  0.58470150E+004
  1522.5564  0.30131476E+004  0.30166319E+004  0.94330640E-003  0.23619885E+000  0.23607798E+000  0.30125097E+004  0.30124862E+004  0.60270463E+004  0.60272568E+004
  1522.8070  0.31074687E+004  0.31110621E+004  0.97283601E-003  0.24359282E+000  0.24346817E+000  0.31068157E+004  0.31067914E+004  0.62157168E+004  0.62159340E+004
  1523.0576  0.32062729E+004  0.32099805E+004  0.10037692E-002  0.25133825E+000  0.25120963E+000  0.32056043E+004  0.32055793E+004  0.64133552E+004  0.64135793E+004
  1523.3083  0.33098479E+004  0.33136753E+004  0.10361961E-002  0.25945767E+000  0.25932490E+000  0.33091632E+004  0.33091374E+004  0.66205367E+004  0.66207682E+004
  1523.5589  0.34185046E+004  0.34224576E+004  0.10702140E-002  0.26797547E+000  0.26783833E+000  0.34178032E+004  0.34177766E+004  0.68378835E+004  0.68381227E+004
  1523.8095  0.35325795E+004  0.35366645E+004  0.11059284E-002  0.27691804E+000  0.27677632E+000  0.35318611E+004  0.35318335E+004  0.70660688E+004  0.70663161E+004
  1524.0602  0.36524377E+004  0.36566612E+004  0.11434533E-002  0.28631396E+000  0.28616744E+000  0.36517015E+004  0.36516730E+004  0.73058225E+004  0.73060783E+004
  1524.3108  0.37784748E+004  0.37828441E+004  0.11829129E-002  0.29619430E+000  0.29604272E+000  0.37777204E+004  0.37776909E+004  0.75579366E+004  0.75582014E+004
  1524.5614  0.39111213E+004  0.39156440E+004  0.12244418E-002  0.30659277E+000  0.30643586E+000  0.39103480E+004  0.39103176E+004  0.78232719E+004  0.78235460E+004
  1524.8120  0.40508453E+004  0.40555295E+004  0.12681866E-002  0.31754608E+000  0.31738356E+000  0.40500526E+004  0.40500210E+004  0.81027647E+004  0.81030488E+004
  1525.0627  0.41981569E+004  0.42030115E+004  0.13143071E-002  0.32909422E+000  0.32892579E+000  0.41973442E+004  0.41973115E+004  0.83974357E+004  0.83977303E+004
  1525.3133  0.43536130E+004  0.43586473E+004  0.13629775E-002  0.34128084E+000  0.34110618E+000  0.43527795E+004  0.43527456E+004  0.87083987E+004  0.87087044E+004
  1525.5639  0.45178219E+004  0.45230461E+004  0.14143885E-002  0.35415366E+000  0.35397241E+000  0.45169672E+004  0.45169320E+004  0.90368708E+004  0.90371882E+004
  1525.8145  0.46914498E+004  0.46968748E+004  0.14687485E-002  0.36776488E+000  0.36757666E+000  0.46905732E+004  0.46905366E+004  0.93841847E+004  0.93845145E+004
  1526.0652  0.48752270E+004  0.48808645E+004  0.15262862E-002  0.38217176E+000  0.38197617E+000  0.48743279E+004  0.48742899E+004  0.97518011E+004  0.97521440E+004
  1526.3158  0.50699556E+004  0.50758183E+004  0.15872528E-002  0.39743719E+000  0.39723378E+000  0.50690333E+004  0.50689938E+004  0.10141325E+005  0.10141682E+005
  1526.5664  0.52765180E+004  0.52826195E+004  0.16519245E-002  0.41363034E+000  0.41341864E+000  0.52755718E+004  0.52755307E+004  0.10554521E+005  0.10554892E+005
  1526.8170  0.54958866E+004  0.55022418E+004  0.17206060E-002  0.43082746E+000  0.43060696E+000  0.54949160E+004  0.54948732E+004  0.10993334E+005  0.10993722E+005
  1527.0677  0.57291354E+004  0.57357603E+004  0.17936333E-002  0.44911273E+000  0.44888287E+000  0.57281397E+004  0.57280951E+004  0.11459914E+005  0.11460318E+005
  1527.3183  0.59774521E+004  0.59843642E+004  0.18713784E-002  0.46857930E+000  0.46833947E+000  0.59764309E+004  0.59763843E+004  0.11956636E+005  0.11957058E+005
  1527.5689  0.62421539E+004  0.62493720E+004  0.19542538E-002  0.48933039E+000  0.48907994E+000  0.62411065E+004  0.62410579E+004  0.12486135E+005  0.12486576E+005
  1527.8195  0.65247034E+004  0.65322482E+004  0.20427175E-002  0.51148071E+000  0.51121892E+000  0.65236294E+004  0.65235786E+004  0.13051338E+005  0.13051799E+005
  1528.0702  0.68267291E+004  0.68346232E+004  0.21372793E-002  0.53515792E+000  0.53488401E+000  0.68256282E+004  0.68255749E+004  0.13655501E+005  0.13655984E+005
  1528.3208  0.71500479E+004  0.71583158E+004  0.22385081E-002  0.56050446E+000  0.56021758E+000  0.71489197E+004  0.71488640E+004  0.14302260E+005  0.14302766E+005
  1528.5714  0.74966916E+004  0.75053604E+004  0.23470403E-002  0.58767964E+000  0.58737884E+000  0.74955360E+004  0.74954775E+004  0.14995680E+005  0.14996211E+005
  1528.8221  0.78689380E+004  0.78780372E+004  0.24635890E-002  0.61686203E+000  0.61654629E+000  0.78677549E+004  0.78676936E+004  0.15740316E+005  0.15740874E+005
  1529.0727  0.82693470E+004  0.82789092E+004  0.25889558E-002  0.64825234E+000  0.64792054E+000  0.82681367E+004  0.82680722E+004  0.16541291E+005  0.16541878E+005
  1529.3233  0.87008031E+004  0.87108643E+004  0.27240439E-002  0.68207673E+000  0.68172761E+000  0.86995661E+004  0.86994983E+004  0.17404375E+005  0.17404993E+005
  1529.5739  0.91665658E+004  0.91771656E+004  0.28698741E-002  0.71859074E+000  0.71822292E+000  0.91653028E+004  0.91652314E+004  0.18336088E+005  0.18336741E+005
  1529.8246  0.96703285E+004  0.96815108E+004  0.30276028E-002  0.75808394E+000  0.75769591E+000  0.96690407E+004  0.96689653E+004  0.19343820E+005  0.19344509E+005
