#Raman spectra
#Laser energy   2.33 eV
#Raman shift (cm-1), Raman Spectra (XX,YY,ZZ,s+s+,s-s-,XY,YX,s+s-,s-s+,nonpol)
   350.0000  0.12023564E+003  0.11857341E+003  0.44775240E+002  0.81482773E+002  0.81883022E+002  0.34283578E+002  0.34893725E+002  0.72216716E+002  0.72403850E+002  0.84304900E+002
   350.2506  0.12155302E+003  0.11987290E+003  0.45201282E+002  0.82258187E+002  0.82662192E+002  0.34807904E+002  0.35427373E+002  0.73276818E+002  0.73464004E+002  0.85131708E+002
   350.5013  0.12289403E+003  0.12119568E+003  0.45633432E+002  0.83044720E+002  0.83452534E+002  0.35344340E+002  0.35973348E+002  0.74361450E+002  0.74548697E+002  0.85973129E+002
   350.7519  0.12425926E+003  0.12254235E+003  0.46071807E+002  0.83842587E+002  0.84254262E+002  0.35893265E+002  0.36532033E+002  0.75471371E+002  0.75658687E+002  0.86829496E+002
   351.0025  0.12564934E+003  0.12391350E+003  0.46516527E+002  0.84652005E+002  0.85067596E+002  0.36455067E+002  0.37103824E+002  0.76607371E+002  0.76794764E+002  0.87701156E+002
   351.2531  0.12706490E+003  0.12530978E+003  0.46967716E+002  0.85473198E+002  0.85892761E+002  0.37030153E+002  0.37689136E+002  0.77770269E+002  0.77957746E+002  0.88588464E+002
   351.5038  0.12850661E+003  0.12673184E+003  0.47425499E+002  0.86306397E+002  0.86729987E+002  0.37618944E+002  0.38288396E+002  0.78960915E+002  0.79148487E+002  0.89491788E+002
   351.7544  0.12997515E+003  0.12818034E+003  0.47890005E+002  0.87151835E+002  0.87579511E+002  0.38221878E+002  0.38902052E+002  0.80180197E+002  0.80367871E+002  0.90411507E+002
   352.0050  0.13147122E+003  0.12965599E+003  0.48361367E+002  0.88009755E+002  0.88441574E+002  0.38839413E+002  0.39530567E+002  0.81429036E+002  0.81616822E+002  0.91348014E+002
   352.2556  0.13299557E+003  0.13115950E+003  0.48839721E+002  0.88880403E+002  0.89316425E+002  0.39472022E+002  0.40174426E+002  0.82708390E+002  0.82896298E+002  0.92301714E+002
   352.5063  0.13454894E+003  0.13269163E+003  0.49325204E+002  0.89764031E+002  0.90204317E+002  0.40120200E+002  0.40834130E+002  0.84019258E+002  0.84207297E+002  0.93273026E+002
   352.7569  0.13613213E+003  0.13425315E+003  0.49817960E+002  0.90660900E+002  0.91105512E+002  0.40784462E+002  0.41510205E+002  0.85362678E+002  0.85550859E+002  0.94262384E+002
   353.0075  0.13774595E+003  0.13584486E+003  0.50318135E+002  0.91571275E+002  0.92020275E+002  0.41465344E+002  0.42203195E+002  0.86739733E+002  0.86928066E+002  0.95270235E+002
   353.2581  0.13939124E+003  0.13746759E+003  0.50825877E+002  0.92495429E+002  0.92948881E+002  0.42163404E+002  0.42913668E+002  0.88151550E+002  0.88340046E+002  0.96297044E+002
   353.5088  0.14106888E+003  0.13912221E+003  0.51341341E+002  0.93433640E+002  0.93891610E+002  0.42879225E+002  0.43642218E+002  0.89599305E+002  0.89787974E+002  0.97343290E+002
   353.7594  0.14277977E+003  0.14080960E+003  0.51864683E+002  0.94386195E+002  0.94848751E+002  0.43613413E+002  0.44389463E+002  0.91084222E+002  0.91273077E+002  0.98409470E+002
   354.0100  0.14452485E+003  0.14253070E+003  0.52396066E+002  0.95353390E+002  0.95820598E+002  0.44366602E+002  0.45156046E+002  0.92607580E+002  0.92796632E+002  0.99496097E+002
   354.2607  0.14630511E+003  0.14428646E+003  0.52935654E+002  0.96335523E+002  0.96807453E+002  0.45139452E+002  0.45942640E+002  0.94170711E+002  0.94359974E+002  0.10060371E+003
   354.5113  0.14812154E+003  0.14607789E+003  0.53483618E+002  0.97332906E+002  0.97809629E+002  0.45932653E+002  0.46749948E+002  0.95775008E+002  0.95964493E+002  0.10173285E+003
   354.7619  0.14997522E+003  0.14790602E+003  0.54040131E+002  0.98345855E+002  0.98827442E+002  0.46746925E+002  0.47578701E+002  0.97421922E+002  0.97611643E+002  0.10288409E+003
   355.0125  0.15186722E+003  0.14977192E+003  0.54605372E+002  0.99374696E+002  0.99861221E+002  0.47583021E+002  0.48429666E+002  0.99112972E+002  0.99302942E+002  0.10405803E+003
   355.2632  0.15379869E+003  0.15167672E+003  0.55179525E+002  0.10041976E+003  0.10091130E+003  0.48441725E+002  0.49303642E+002  0.10084974E+003  0.10103998E+003  0.10525529E+003
   355.5138  0.15577080E+003  0.15362158E+003  0.55762777E+002  0.10148140E+003  0.10197803E+003  0.49323861E+002  0.50201466E+002  0.10263389E+003  0.10282440E+003  0.10647649E+003
   355.7644  0.15778479E+003  0.15560772E+003  0.56355323E+002  0.10255995E+003  0.10306175E+003  0.50230286E+002  0.51124013E+002  0.10446715E+003  0.10465795E+003  0.10772231E+003
   356.0150  0.15984193E+003  0.15763637E+003  0.56957360E+002  0.10365579E+003  0.10416283E+003  0.51161901E+002  0.52072197E+002  0.10635133E+003  0.10654244E+003  0.10899343E+003
   356.2657  0.16194356E+003  0.15970887E+003  0.57569093E+002  0.10476929E+003  0.10528165E+003  0.52119646E+002  0.53046976E+002  0.10828834E+003  0.10847977E+003  0.11029056E+003
   356.5163  0.16409104E+003  0.16182657E+003  0.58190729E+002  0.10590081E+003  0.10641859E+003  0.53104506E+002  0.54049352E+002  0.11028015E+003  0.11047192E+003  0.11161444E+003
   356.7669  0.16628584E+003  0.16399090E+003  0.58822486E+002  0.10705077E+003  0.10757404E+003  0.54117514E+002  0.55080377E+002  0.11232884E+003  0.11252098E+003  0.11296585E+003
   357.0175  0.16852946E+003  0.16620332E+003  0.59464582E+002  0.10821955E+003  0.10874840E+003  0.55159750E+002  0.56141150E+002  0.11443661E+003  0.11462912E+003  0.11434560E+003
   357.2682  0.17082345E+003  0.16846540E+003  0.60117245E+002  0.10940757E+003  0.10994209E+003  0.56232349E+002  0.57232827E+002  0.11660573E+003  0.11679864E+003  0.11575450E+003
   357.5188  0.17316946E+003  0.17077874E+003  0.60780708E+002  0.11061526E+003  0.11115554E+003  0.57336501E+002  0.58356617E+002  0.11883859E+003  0.11903192E+003  0.11719343E+003
   357.7694  0.17556918E+003  0.17314501E+003  0.61455211E+002  0.11184306E+003  0.11238918E+003  0.58473452E+002  0.59513792E+002  0.12113772E+003  0.12133148E+003  0.11866329E+003
   358.0201  0.17802442E+003  0.17556598E+003  0.62140999E+002  0.11309140E+003  0.11364346E+003  0.59644515E+002  0.60705683E+002  0.12350575E+003  0.12369997E+003  0.12016504E+003
   358.2707  0.18053701E+003  0.17804347E+003  0.62838325E+002  0.11436076E+003  0.11491886E+003  0.60851064E+002  0.61933694E+002  0.12594546E+003  0.12614016E+003  0.12169963E+003
   358.5213  0.18310891E+003  0.18057941E+003  0.63547451E+002  0.11565160E+003  0.11621583E+003  0.62094546E+002  0.63199294E+002  0.12845976E+003  0.12865496E+003  0.12326810E+003
   358.7719  0.18574215E+003  0.18317578E+003  0.64268643E+002  0.11696442E+003  0.11753488E+003  0.63376483E+002  0.64504033E+002  0.13105171E+003  0.13124743E+003  0.12487152E+003
   359.0226  0.18843886E+003  0.18583469E+003  0.65002177E+002  0.11829972E+003  0.11887651E+003  0.64698474E+002  0.65849539E+002  0.13372453E+003  0.13392081E+003  0.12651099E+003
   359.2732  0.19120125E+003  0.18855833E+003  0.65748335E+002  0.11965800E+003  0.12024123E+003  0.66062201E+002  0.67237524E+002  0.13648161E+003  0.13667846E+003  0.12818769E+003
   359.5238  0.19403167E+003  0.19134899E+003  0.66507409E+002  0.12103981E+003  0.12162958E+003  0.67469439E+002  0.68669794E+002  0.13932653E+003  0.13952398E+003  0.12990281E+003
   359.7744  0.19693255E+003  0.19420908E+003  0.67279700E+002  0.12244569E+003  0.12304211E+003  0.68922055E+002  0.70148250E+002  0.14226303E+003  0.14246111E+003  0.13165764E+003
   360.0251  0.19990645E+003  0.19714111E+003  0.68065514E+002  0.12387620E+003  0.12447937E+003  0.70422018E+002  0.71674895E+002  0.14529508E+003  0.14549382E+003  0.13345349E+003
   360.2757  0.20295606E+003  0.20014774E+003  0.68865170E+002  0.12533192E+003  0.12594196E+003  0.71971405E+002  0.73251843E+002  0.14842686E+003  0.14862630E+003  0.13529176E+003
   360.5263  0.20608419E+003  0.20323173E+003  0.69678994E+002  0.12681345E+003  0.12743047E+003  0.73572407E+002  0.74881326E+002  0.15166279E+003  0.15186294E+003  0.13717389E+003
   360.7769  0.20929379E+003  0.20639599E+003  0.70507323E+002  0.12832139E+003  0.12894552E+003  0.75227340E+002  0.76565697E+002  0.15500750E+003  0.15520841E+003  0.13910141E+003
   361.0276  0.21258799E+003  0.20964359E+003  0.71350504E+002  0.12985639E+003  0.13048773E+003  0.76938647E+002  0.78307448E+002  0.15846593E+003  0.15866763E+003  0.14107592E+003
   361.2782  0.21597005E+003  0.21297775E+003  0.72208893E+002  0.13141909E+003  0.13205777E+003  0.78708914E+002  0.80109207E+002  0.16204327E+003  0.16224579E+003  0.14309908E+003
   361.5288  0.21944339E+003  0.21640185E+003  0.73082859E+002  0.13301016E+003  0.13365630E+003  0.80540877E+002  0.81973760E+002  0.16574502E+003  0.16594840E+003  0.14517266E+003
   361.7794  0.22301166E+003  0.21991945E+003  0.73972780E+002  0.13463030E+003  0.13528403E+003  0.82437430E+002  0.83904052E+002  0.16957699E+003  0.16978127E+003  0.14729849E+003
   362.0301  0.22667864E+003  0.22353432E+003  0.74879047E+002  0.13628021E+003  0.13694166E+003  0.84401639E+002  0.85903205E+002  0.17354535E+003  0.17375058E+003  0.14947850E+003
   362.2807  0.23044838E+003  0.22725039E+003  0.75802062E+002  0.13796064E+003  0.13862993E+003  0.86436755E+002  0.87974526E+002  0.17765663E+003  0.17786285E+003  0.15171475E+003
   362.5313  0.23432510E+003  0.23107186E+003  0.76742241E+002  0.13967233E+003  0.14034961E+003  0.88546225E+002  0.90121524E+002  0.18191776E+003  0.18212501E+003  0.15400936E+003
   362.7820  0.23831327E+003  0.23500312E+003  0.77700011E+002  0.14141607E+003  0.14210147E+003  0.90733708E+002  0.92347923E+002  0.18633608E+003  0.18654441E+003  0.15636460E+003
   363.0326  0.24241764E+003  0.23904884E+003  0.78675815E+002  0.14319266E+003  0.14388632E+003  0.93003090E+002  0.94657680E+002  0.19091940E+003  0.19112886E+003  0.15878284E+003
   363.2832  0.24664319E+003  0.24321392E+003  0.79670106E+002  0.14500294E+003  0.14570500E+003  0.95358502E+002  0.97054997E+002  0.19567601E+003  0.19588665E+003  0.16126659E+003
   363.5338  0.25099521E+003  0.24750359E+003  0.80683355E+002  0.14684776E+003  0.14755837E+003  0.97804337E+002  0.99544347E+002  0.20061474E+003  0.20082662E+003  0.16381849E+003
   363.7845  0.25547931E+003  0.25192334E+003  0.81716047E+002  0.14872801E+003  0.14944731E+003  0.10034527E+003  0.10213049E+003  0.20574497E+003  0.20595814E+003  0.16644133E+003
   364.0351  0.26010141E+003  0.25647903E+003  0.82768683E+002  0.15064459E+003  0.15137275E+003  0.10298630E+003  0.10481850E+003  0.21107669E+003  0.21129122E+003  0.16913808E+003
   364.2857  0.26486782E+003  0.26117685E+003  0.83841777E+002  0.15259846E+003  0.15333562E+003  0.10573271E+003  0.10761378E+003  0.21662057E+003  0.21683652E+003  0.17191184E+003
   364.5363  0.26978520E+003  0.26602336E+003  0.84935865E+002  0.15459058E+003  0.15533690E+003  0.10859020E+003  0.11052211E+003  0.22238798E+003  0.22260541E+003  0.17476594E+003
   364.7870  0.27486065E+003  0.27102557E+003  0.86051497E+002  0.15662196E+003  0.15737760E+003  0.11156481E+003  0.11354964E+003  0.22839106E+003  0.22861005E+003  0.17770387E+003
   365.0376  0.28010172E+003  0.27619089E+003  0.87189241E+002  0.15869364E+003  0.15945877E+003  0.11466300E+003  0.11670296E+003  0.23464277E+003  0.23486340E+003  0.18072935E+003
   365.2882  0.28551645E+003  0.28152724E+003  0.88349687E+002  0.16080669E+003  0.16158148E+003  0.11789172E+003  0.11998912E+003  0.24115701E+003  0.24137935E+003  0.18384633E+003
   365.5388  0.29111338E+003  0.28704303E+003  0.89533440E+002  0.16296223E+003  0.16374684E+003  0.12125837E+003  0.12341567E+003  0.24794862E+003  0.24817276E+003  0.18705900E+003
   365.7895  0.29690164E+003  0.29274725E+003  0.90741131E+002  0.16516139E+003  0.16595600E+003  0.12477089E+003  0.12699069E+003  0.25503353E+003  0.25525955E+003  0.19037184E+003
   366.0401  0.30289097E+003  0.29864948E+003  0.91973407E+002  0.16740538E+003  0.16821016E+003  0.12843781E+003  0.13072287E+003  0.26242880E+003  0.26265680E+003  0.19378957E+003
   366.2907  0.30909177E+003  0.30475997E+003  0.93230940E+002  0.16969540E+003  0.17051054E+003  0.13226830E+003  0.13462150E+003  0.27015276E+003  0.27038284E+003  0.19731729E+003
   366.5414  0.31551518E+003  0.31108967E+003  0.94514425E+002  0.17203273E+003  0.17285841E+003  0.13627218E+003  0.13869663E+003  0.27822512E+003  0.27845738E+003  0.20096038E+003
   366.7920  0.32217311E+003  0.31765031E+003  0.95824581E+002  0.17441869E+003  0.17525510E+003  0.14046005E+003  0.14295902E+003  0.28666707E+003  0.28690163E+003  0.20472463E+003
   367.0426  0.32907835E+003  0.32445448E+003  0.97162151E+002  0.17685464E+003  0.17770196E+003  0.14484332E+003  0.14742028E+003  0.29550143E+003  0.29573840E+003  0.20861621E+003
   367.2932  0.33624460E+003  0.33151566E+003  0.98527904E+002  0.17934197E+003  0.18020040E+003  0.14943429E+003  0.15209295E+003  0.30475281E+003  0.30499231E+003  0.21264174E+003
   367.5439  0.34368659E+003  0.33884837E+003  0.99922639E+002  0.18188215E+003  0.18275189E+003  0.15424625E+003  0.15699054E+003  0.31444777E+003  0.31468994E+003  0.21680832E+003
   367.7945  0.35142019E+003  0.34646820E+003  0.10134718E+003  0.18447669E+003  0.18535794E+003  0.15929356E+003  0.16212766E+003  0.32461500E+003  0.32485998E+003  0.22112354E+003
   368.0451  0.35946246E+003  0.35439196E+003  0.10280238E+003  0.18712715E+003  0.18802011E+003  0.16459175E+003  0.16752013E+003  0.33528555E+003  0.33553349E+003  0.22559561E+003
   368.2957  0.36783182E+003  0.36263777E+003  0.10428913E+003  0.18983516E+003  0.19074002E+003  0.17015767E+003  0.17318509E+003  0.34649306E+003  0.34674412E+003  0.23023333E+003
   368.5464  0.37654816E+003  0.37122521E+003  0.10580834E+003  0.19260238E+003  0.19351937E+003  0.17600958E+003  0.17914114E+003  0.35827399E+003  0.35852835E+003  0.23504619E+003
   368.7970  0.38563298E+003  0.38017544E+003  0.10736097E+003  0.19543057E+003  0.19635988E+003  0.18216734E+003  0.18540848E+003  0.37066798E+003  0.37092581E+003  0.24004445E+003
   369.0476  0.39510958E+003  0.38951140E+003  0.10894799E+003  0.19832153E+003  0.19926338E+003  0.18865253E+003  0.19200907E+003  0.38371808E+003  0.38397959E+003  0.24523919E+003
   369.2982  0.40500322E+003  0.39925794E+003  0.11057045E+003  0.20127713E+003  0.20223174E+003  0.19548867E+003  0.19896687E+003  0.39747123E+003  0.39773661E+003  0.25064239E+003
   369.5489  0.41534135E+003  0.40944207E+003  0.11222939E+003  0.20429932E+003  0.20526691E+003  0.20270144E+003  0.20630800E+003  0.41197857E+003  0.41224806E+003  0.25626707E+003
   369.7995  0.42615380E+003  0.42009317E+003  0.11392592E+003  0.20739012E+003  0.20837090E+003  0.21031886E+003  0.21406098E+003  0.42729598E+003  0.42756982E+003  0.26212736E+003
   370.0501  0.43747312E+003  0.43124325E+003  0.11566118E+003  0.21055163E+003  0.21154582E+003  0.21837163E+003  0.22225706E+003  0.44348458E+003  0.44376303E+003  0.26823863E+003
   370.3008  0.44933480E+003  0.44292725E+003  0.11743636E+003  0.21378602E+003  0.21479384E+003  0.22689337E+003  0.23093046E+003  0.46061134E+003  0.46089467E+003  0.27461761E+003
   370.5514  0.46177765E+003  0.45518337E+003  0.11925269E+003  0.21709557E+003  0.21811723E+003  0.23592101E+003  0.24011876E+003  0.47874974E+003  0.47903826E+003  0.28128261E+003
   370.8020  0.47484420E+003  0.46805343E+003  0.12111146E+003  0.22048261E+003  0.22151833E+003  0.24549516E+003  0.24986330E+003  0.49798056E+003  0.49827459E+003  0.28825363E+003
   371.0526  0.48858108E+003  0.48158335E+003  0.12301399E+003  0.22394960E+003  0.22499960E+003  0.25566055E+003  0.26020960E+003  0.51839275E+003  0.51869264E+003  0.29555258E+003
   371.3033  0.50303957E+003  0.49582360E+003  0.12496167E+003  0.22749908E+003  0.22856357E+003  0.26646657E+003  0.27120794E+003  0.54008446E+003  0.54039058E+003  0.30320354E+003
   371.5539  0.51827617E+003  0.51082974E+003  0.12695593E+003  0.23113370E+003  0.23221288E+003  0.27796783E+003  0.28291389E+003  0.56316414E+003  0.56347691E+003  0.31123299E+003
   371.8045  0.53435322E+003  0.52666315E+003  0.12899828E+003  0.23485622E+003  0.23595030E+003  0.29022484E+003  0.29538905E+003  0.58775194E+003  0.58807179E+003  0.31967014E+003
   372.0551  0.55133967E+003  0.54339167E+003  0.13109026E+003  0.23866950E+003  0.23977867E+003  0.30330479E+003  0.30870180E+003  0.61398117E+003  0.61430859E+003  0.32854728E+003
   372.3058  0.56931198E+003  0.56109053E+003  0.13323351E+003  0.24257654E+003  0.24370099E+003  0.31728246E+003  0.32292824E+003  0.64200008E+003  0.64233560E+003  0.33790015E+003
   372.5564  0.58835507E+003  0.57984331E+003  0.13542970E+003  0.24658045E+003  0.24772035E+003  0.33224122E+003  0.33815324E+003  0.67197392E+003  0.67231811E+003  0.34776846E+003
   372.8070  0.60856352E+003  0.59974307E+003  0.13768060E+003  0.25068448E+003  0.25183999E+003  0.34827428E+003  0.35447167E+003  0.70408729E+003  0.70444077E+003  0.35819639E+003
   373.0576  0.63004293E+003  0.62089371E+003  0.13998804E+003  0.25489201E+003  0.25606328E+003  0.36548608E+003  0.37198981E+003  0.73854689E+003  0.73891034E+003  0.36923327E+003
   373.3083  0.65291147E+003  0.64341152E+003  0.14235392E+003  0.25920658E+003  0.26039374E+003  0.38399393E+003  0.39082708E+003  0.77558475E+003  0.77595893E+003  0.38093427E+003
   373.5589  0.67730177E+003  0.66742701E+003  0.14478023E+003  0.26363189E+003  0.26483504E+003  0.40392996E+003  0.41111795E+003  0.81546202E+003  0.81584775E+003  0.39336129E+003
   373.8095  0.70336306E+003  0.69308701E+003  0.14726905E+003  0.26817178E+003  0.26939100E+003  0.42544338E+003  0.43301429E+003  0.85847339E+003  0.85887158E+003  0.40658402E+003
   374.0602  0.73126377E+003  0.72055725E+003  0.14982254E+003  0.27283029E+003  0.27406561E+003  0.44870318E+003  0.45668810E+003  0.90495238E+003  0.90536402E+003  0.42068108E+003
   374.3108  0.76119452E+003  0.75002529E+003  0.15244296E+003  0.27761164E+003  0.27886306E+003  0.47390130E+003  0.48233474E+003  0.95527748E+003  0.95570369E+003  0.43574150E+003
   374.5614  0.79337177E+003  0.78170412E+003  0.15513266E+003  0.28252022E+003  0.28378770E+003  0.50125646E+003  0.51017682E+003  0.10098796E+004  0.10103216E+004  0.45186639E+003
   374.8120  0.82804206E+003  0.81583633E+003  0.15789412E+003  0.28756067E+003  0.28884409E+003  0.53101865E+003  0.54046877E+003  0.10692510E+004  0.10697101E+004  0.46917101E+003
   375.0627  0.86548723E+003  0.85269921E+003  0.16072990E+003  0.29273781E+003  0.29403701E+003  0.56347460E+003  0.57350244E+003  0.11339554E+004  0.11344332E+004  0.48778719E+003
   375.3133  0.90603050E+003  0.89261081E+003  0.16364269E+003  0.29805673E+003  0.29937145E+003  0.59895434E+003  0.60961373E+003  0.12046415E+004  0.12051397E+004  0.50786624E+003
   375.5639  0.95004401E+003  0.93593729E+003  0.16663531E+003  0.30352274E+003  0.30485265E+003  0.63783912E+003  0.64919068E+003  0.12820576E+004  0.12825781E+004  0.52958256E+003
   375.8145  0.99795783E+003  0.98310179E+003  0.16971070E+003  0.30914144E+003  0.31048607E+003  0.68057107E+003  0.69268330E+003  0.13670708E+004  0.13676157E+004  0.55313792E+003
   376.0652  0.10502710E+004  0.10345953E+004  0.17287193E+003  0.31491872E+003  0.31627747E+003  0.72766500E+003  0.74061555E+003  0.14606895E+004  0.14612612E+004  0.57876675E+003
   376.3158  0.11075649E+004  0.10909900E+004  0.17612224E+003  0.32086077E+003  0.32223289E+003  0.77972284E+003  0.79360008E+003  0.15640914E+004  0.15646927E+004  0.60674260E+003
   376.5664  0.11705201E+004  0.11529552E+004  0.17946499E+003  0.32697411E+003  0.32835865E+003  0.83745148E+003  0.85235638E+003  0.16786583E+004  0.16792922E+004  0.63738613E+003
   376.8170  0.12399365E+004  0.12212783E+004  0.18290373E+003  0.33326565E+003  0.33466143E+003  0.90168491E+003  0.91773326E+003  0.18060179E+004  0.18066880E+004  0.67107501E+003
   377.0677  0.13167591E+004  0.12968887E+004  0.18644216E+003  0.33974268E+003  0.34114823E+003  0.97341168E+003  0.99073690E+003  0.19480976E+004  0.19488079E+004  0.70825621E+003
