#Raman spectra
#Laser energy   1.95 eV
#Raman shift (cm-1), Raman Spectra (XX,YY,ZZ,s+s+,s-s-,XY,YX,s+s-,s-s+,nonpol)
   350.0000  0.83007737E+002  0.83249611E+002  0.56483990E+002  0.64644571E+002  0.64641347E+002  0.14325652E+002  0.14601050E+002  0.32869753E+002  0.33028378E+002  0.69184046E+002
   350.2506  0.83838608E+002  0.84084157E+002  0.57021443E+002  0.65259726E+002  0.65256422E+002  0.14544754E+002  0.14824346E+002  0.33308642E+002  0.33467074E+002  0.69805918E+002
   350.5013  0.84683419E+002  0.84932696E+002  0.57566600E+002  0.65883700E+002  0.65880316E+002  0.14768917E+002  0.15052799E+002  0.33757787E+002  0.33916028E+002  0.70438416E+002
   350.7519  0.85542499E+002  0.85795556E+002  0.58119611E+002  0.66516665E+002  0.66513197E+002  0.14998298E+002  0.15286571E+002  0.34217505E+002  0.34375558E+002  0.71081758E+002
   351.0025  0.86416185E+002  0.86673077E+002  0.58680626E+002  0.67158793E+002  0.67155239E+002  0.15233061E+002  0.15525828E+002  0.34688126E+002  0.34845992E+002  0.71736170E+002
   351.2531  0.87304825E+002  0.87565606E+002  0.59249801E+002  0.67810263E+002  0.67806620E+002  0.15473375E+002  0.15770741E+002  0.35169992E+002  0.35327673E+002  0.72401884E+002
   351.5038  0.88208780E+002  0.88473505E+002  0.59827295E+002  0.68471255E+002  0.68467521E+002  0.15719416E+002  0.16021492E+002  0.35663459E+002  0.35820958E+002  0.73079142E+002
   351.7544  0.89128419E+002  0.89397146E+002  0.60413270E+002  0.69141958E+002  0.69138129E+002  0.15971367E+002  0.16278266E+002  0.36168896E+002  0.36326215E+002  0.73768189E+002
   352.0050  0.90064126E+002  0.90336913E+002  0.61007894E+002  0.69822561E+002  0.69818635E+002  0.16229419E+002  0.16541258E+002  0.36686690E+002  0.36843830E+002  0.74469281E+002
   352.2556  0.91016295E+002  0.91293203E+002  0.61611337E+002  0.70513260E+002  0.70509235E+002  0.16493771E+002  0.16810670E+002  0.37217240E+002  0.37374205E+002  0.75182681E+002
   352.5063  0.91985336E+002  0.92266425E+002  0.62223776E+002  0.71214257E+002  0.71210129E+002  0.16764629E+002  0.17086713E+002  0.37760962E+002  0.37917754E+002  0.75908658E+002
   352.7569  0.92971670E+002  0.93257002E+002  0.62845388E+002  0.71925756E+002  0.71921522E+002  0.17042208E+002  0.17369605E+002  0.38318293E+002  0.38474914E+002  0.76647494E+002
   353.0075  0.93975733E+002  0.94265371E+002  0.63476359E+002  0.72647969E+002  0.72643626E+002  0.17326732E+002  0.17659576E+002  0.38889682E+002  0.39046135E+002  0.77399476E+002
   353.2581  0.94997976E+002  0.95291986E+002  0.64116877E+002  0.73381112E+002  0.73376656E+002  0.17618435E+002  0.17956863E+002  0.39475602E+002  0.39631889E+002  0.78164901E+002
   353.5088  0.96038866E+002  0.96337313E+002  0.64767136E+002  0.74125406E+002  0.74120835E+002  0.17917559E+002  0.18261713E+002  0.40076542E+002  0.40232668E+002  0.78944077E+002
   353.7594  0.97098883E+002  0.97401837E+002  0.65427333E+002  0.74881079E+002  0.74876388E+002  0.18224359E+002  0.18574386E+002  0.40693016E+002  0.40848982E+002  0.79737320E+002
   354.0100  0.98178528E+002  0.98486056E+002  0.66097674E+002  0.75648364E+002  0.75643549E+002  0.18539099E+002  0.18895152E+002  0.41325557E+002  0.41481366E+002  0.80544958E+002
   354.2607  0.99278317E+002  0.99590491E+002  0.66778365E+002  0.76427499E+002  0.76422557E+002  0.18862055E+002  0.19224291E+002  0.41974721E+002  0.42130376E+002  0.81367329E+002
   354.5113  0.10039878E+003  0.10071568E+003  0.67469623E+002  0.77218731E+002  0.77213657E+002  0.19193516E+002  0.19562097E+002  0.42641090E+002  0.42796595E+002  0.82204781E+002
   354.7619  0.10154048E+003  0.10186217E+003  0.68171665E+002  0.78022310E+002  0.78017101E+002  0.19533781E+002  0.19908876E+002  0.43325270E+002  0.43480628E+002  0.83057676E+002
   355.0125  0.10270399E+003  0.10303054E+003  0.68884718E+002  0.78838495E+002  0.78833146E+002  0.19883167E+002  0.20264951E+002  0.44027897E+002  0.44183111E+002  0.83926387E+002
   355.2632  0.10388990E+003  0.10422139E+003  0.69609014E+002  0.79667551E+002  0.79662058E+002  0.20242000E+002  0.20630654E+002  0.44749631E+002  0.44904705E+002  0.84811299E+002
   355.5138  0.10509882E+003  0.10543534E+003  0.70344789E+002  0.80509750E+002  0.80504107E+002  0.20610625E+002  0.21006336E+002  0.45491165E+002  0.45646103E+002  0.85712812E+002
   355.7644  0.10633140E+003  0.10667303E+003  0.71092287E+002  0.81365371E+002  0.81359574E+002  0.20989400E+002  0.21392363E+002  0.46253223E+002  0.46408029E+002  0.86631337E+002
   356.0150  0.10758831E+003  0.10793512E+003  0.71851759E+002  0.82234701E+002  0.82228744E+002  0.21378702E+002  0.21789117E+002  0.47036562E+002  0.47191240E+002  0.87567303E+002
   356.2657  0.10887022E+003  0.10922231E+003  0.72623461E+002  0.83118034E+002  0.83111913E+002  0.21778922E+002  0.22197001E+002  0.47841976E+002  0.47996529E+002  0.88521151E+002
   356.5163  0.11017786E+003  0.11053531E+003  0.73407658E+002  0.84015672E+002  0.84009381E+002  0.22190474E+002  0.22616432E+002  0.48670292E+002  0.48824726E+002  0.89493338E+002
   356.7669  0.11151197E+003  0.11187486E+003  0.74204621E+002  0.84927926E+002  0.84921459E+002  0.22613789E+002  0.23047851E+002  0.49522381E+002  0.49676700E+002  0.90484341E+002
   357.0175  0.11287331E+003  0.11324175E+003  0.75014628E+002  0.85855115E+002  0.85848466E+002  0.23049317E+002  0.23491718E+002  0.50399153E+002  0.50553362E+002  0.91494648E+002
   357.2682  0.11426270E+003  0.11463677E+003  0.75837965E+002  0.86797567E+002  0.86790730E+002  0.23497534E+002  0.23948516E+002  0.51301563E+002  0.51455666E+002  0.92524772E+002
   357.5188  0.11568097E+003  0.11606077E+003  0.76674926E+002  0.87755619E+002  0.87748586E+002  0.23958936E+002  0.24418753E+002  0.52230611E+002  0.52384614E+002  0.93575238E+002
   357.7694  0.11712899E+003  0.11751461E+003  0.77525813E+002  0.88729616E+002  0.88722381E+002  0.24434045E+002  0.24902958E+002  0.53187348E+002  0.53341257E+002  0.94646596E+002
   358.0201  0.11860766E+003  0.11899920E+003  0.78390938E+002  0.89719914E+002  0.89712471E+002  0.24923408E+002  0.25401691E+002  0.54172878E+002  0.54326697E+002  0.95739415E+002
   358.2707  0.12011792E+003  0.12051549E+003  0.79270619E+002  0.90726879E+002  0.90719220E+002  0.25427600E+002  0.25915537E+002  0.55188358E+002  0.55342094E+002  0.96854284E+002
   358.5213  0.12166075E+003  0.12206446E+003  0.80165184E+002  0.91750887E+002  0.91743004E+002  0.25947227E+002  0.26445113E+002  0.56235004E+002  0.56388664E+002  0.97991817E+002
   358.7719  0.12323719E+003  0.12364714E+003  0.81074971E+002  0.92792325E+002  0.92784210E+002  0.26482923E+002  0.26991066E+002  0.57314097E+002  0.57467686E+002  0.99152652E+002
   359.0226  0.12484829E+003  0.12526459E+003  0.82000327E+002  0.93851591E+002  0.93843235E+002  0.27035357E+002  0.27554077E+002  0.58426981E+002  0.58580506E+002  0.10033745E+003
   359.2732  0.12649516E+003  0.12691793E+003  0.82941610E+002  0.94929093E+002  0.94920488E+002  0.27605232E+002  0.28134865E+002  0.59575072E+002  0.59728542E+002  0.10154690E+003
   359.5238  0.12817898E+003  0.12860833E+003  0.83899186E+002  0.96025253E+002  0.96016389E+002  0.28193290E+002  0.28734182E+002  0.60759862E+002  0.60913283E+002  0.10278172E+003
   359.7744  0.12990095E+003  0.13033701E+003  0.84873435E+002  0.97140504E+002  0.97131371E+002  0.28800310E+002  0.29352826E+002  0.61982920E+002  0.62136300E+002  0.10404265E+003
   360.0251  0.13166234E+003  0.13210523E+003  0.85864744E+002  0.98275291E+002  0.98265880E+002  0.29427117E+002  0.29991634E+002  0.63245902E+002  0.63399249E+002  0.10533048E+003
   360.2757  0.13346449E+003  0.13391432E+003  0.86873514E+002  0.99430075E+002  0.99420374E+002  0.30074577E+002  0.30651492E+002  0.64550553E+002  0.64703876E+002  0.10664600E+003
   360.5263  0.13530877E+003  0.13576568E+003  0.87900158E+002  0.10060533E+003  0.10059532E+003  0.30743606E+002  0.31333332E+002  0.65898715E+002  0.66052023E+002  0.10799007E+003
   360.7769  0.13719664E+003  0.13766077E+003  0.88945101E+002  0.10180153E+003  0.10179122E+003  0.31435172E+002  0.32038141E+002  0.67292332E+002  0.67445635E+002  0.10936356E+003
   361.0276  0.13912962E+003  0.13960110E+003  0.90008779E+002  0.10301919E+003  0.10300855E+003  0.32150296E+002  0.32766959E+002  0.68733460E+002  0.68886767E+002  0.11076740E+003
   361.2782  0.14110931E+003  0.14158828E+003  0.91091643E+002  0.10425883E+003  0.10424785E+003  0.32890060E+002  0.33520888E+002  0.70224268E+002  0.70377591E+002  0.11220253E+003
   361.5288  0.14313738E+003  0.14362398E+003  0.92194157E+002  0.10552096E+003  0.10550964E+003  0.33655605E+002  0.34301092E+002  0.71767053E+002  0.71920404E+002  0.11366997E+003
   361.7794  0.14521559E+003  0.14570997E+003  0.93316798E+002  0.10680615E+003  0.10679446E+003  0.34448141E+002  0.35108805E+002  0.73364248E+002  0.73517637E+002  0.11517076E+003
   362.0301  0.14734577E+003  0.14784808E+003  0.94460061E+002  0.10811495E+003  0.10810288E+003  0.35268950E+002  0.35945332E+002  0.75018425E+002  0.75171866E+002  0.11670598E+003
   362.2807  0.14952986E+003  0.15004027E+003  0.95624452E+002  0.10944796E+003  0.10943549E+003  0.36119391E+002  0.36812057E+002  0.76732313E+002  0.76885818E+002  0.11827680E+003
   362.5313  0.15176991E+003  0.15228857E+003  0.96810495E+002  0.11080576E+003  0.11079288E+003  0.37000902E+002  0.37710450E+002  0.78508804E+002  0.78662389E+002  0.11988441E+003
   362.7820  0.15406805E+003  0.15459513E+003  0.98018730E+002  0.11218898E+003  0.11217567E+003  0.37915015E+002  0.38642067E+002  0.80350970E+002  0.80504648E+002  0.12153006E+003
   363.0326  0.15642655E+003  0.15696221E+003  0.99249715E+002  0.11359825E+003  0.11358450E+003  0.38863353E+002  0.39608565E+002  0.82262069E+002  0.82415856E+002  0.12321508E+003
   363.2832  0.15884777E+003  0.15939219E+003  0.10050402E+003  0.11503424E+003  0.11502002E+003  0.39847641E+002  0.40611703E+002  0.84245566E+002  0.84399480E+002  0.12494085E+003
   363.5338  0.16133422E+003  0.16188760E+003  0.10178225E+003  0.11649762E+003  0.11648291E+003  0.40869716E+002  0.41653351E+002  0.86305147E+002  0.86459204E+002  0.12670882E+003
   363.7845  0.16388856E+003  0.16445107E+003  0.10308500E+003  0.11798910E+003  0.11797388E+003  0.41931534E+002  0.42735502E+002  0.88444731E+002  0.88598951E+002  0.12852053E+003
   364.0351  0.16651358E+003  0.16708541E+003  0.10441291E+003  0.11950939E+003  0.11949365E+003  0.43035175E+002  0.43860279E+002  0.90668496E+002  0.90822899E+002  0.13037756E+003
   364.2857  0.16921222E+003  0.16979358E+003  0.10576663E+003  0.12105925E+003  0.12104296E+003  0.44182861E+002  0.45029944E+002  0.92980894E+002  0.93135501E+002  0.13228163E+003
   364.5363  0.17198763E+003  0.17257871E+003  0.10714683E+003  0.12263945E+003  0.12262257E+003  0.45376961E+002  0.46246911E+002  0.95386675E+002  0.95541508E+002  0.13423450E+003
   364.7870  0.17484310E+003  0.17544413E+003  0.10855421E+003  0.12425079E+003  0.12423330E+003  0.46620004E+002  0.47513759E+002  0.97890910E+002  0.98045994E+002  0.13623806E+003
   365.0376  0.17778216E+003  0.17839334E+003  0.10998949E+003  0.12589408E+003  0.12587596E+003  0.47914695E+002  0.48833245E+002  0.10049902E+003  0.10065438E+003  0.13829429E+003
   365.2882  0.18080851E+003  0.18143008E+003  0.11145340E+003  0.12757018E+003  0.12755140E+003  0.49263928E+002  0.50208317E+002  0.10321680E+003  0.10337246E+003  0.14040528E+003
   365.5388  0.18392612E+003  0.18455830E+003  0.11294672E+003  0.12927997E+003  0.12926049E+003  0.50670801E+002  0.51642133E+002  0.10605045E+003  0.10620645E+003  0.14257325E+003
   365.7895  0.18713919E+003  0.18778223E+003  0.11447024E+003  0.13102435E+003  0.13100415E+003  0.52138634E+002  0.53138077E+002  0.10900663E+003  0.10916300E+003  0.14480054E+003
   366.0401  0.19045218E+003  0.19110633E+003  0.11602477E+003  0.13280428E+003  0.13278331E+003  0.53670991E+002  0.54699781E+002  0.11209247E+003  0.11224923E+003  0.14708962E+003
   366.2907  0.19386987E+003  0.19453538E+003  0.11761117E+003  0.13462071E+003  0.13459894E+003  0.55271696E+002  0.56331142E+002  0.11531562E+003  0.11547282E+003  0.14944314E+003
   366.5414  0.19739732E+003  0.19807446E+003  0.11923030E+003  0.13647466E+003  0.13645204E+003  0.56944864E+002  0.58036353E+002  0.11868432E+003  0.11884199E+003  0.15186388E+003
   366.7920  0.20103996E+003  0.20172901E+003  0.12088308E+003  0.13836716E+003  0.13834366E+003  0.58694919E+002  0.59819925E+002  0.12220741E+003  0.12236559E+003  0.15435482E+003
   367.0426  0.20480359E+003  0.20550483E+003  0.12257045E+003  0.14029929E+003  0.14027487E+003  0.60526629E+002  0.61686716E+002  0.12589443E+003  0.12605317E+003  0.15691911E+003
   367.2932  0.20869438E+003  0.20940812E+003  0.12429337E+003  0.14227218E+003  0.14224677E+003  0.62445137E+002  0.63641967E+002  0.12975566E+003  0.12991500E+003  0.15956012E+003
   367.5439  0.21271900E+003  0.21344554E+003  0.12605285E+003  0.14428696E+003  0.14426052E+003  0.64455993E+002  0.65691336E+002  0.13380219E+003  0.13396219E+003  0.16228144E+003
   367.7945  0.21688455E+003  0.21762421E+003  0.12784993E+003  0.14634484E+003  0.14631732E+003  0.66565199E+002  0.67840937E+002  0.13804601E+003  0.13820673E+003  0.16508689E+003
   368.0451  0.22119869E+003  0.22195180E+003  0.12968569E+003  0.14844706E+003  0.14841839E+003  0.68779247E+002  0.70097390E+002  0.14250009E+003  0.14266158E+003  0.16798058E+003
   368.2957  0.22566962E+003  0.22643654E+003  0.13156125E+003  0.15059489E+003  0.15056502E+003  0.71105176E+002  0.72467866E+002  0.14717848E+003  0.14734081E+003  0.17096690E+003
   368.5464  0.23030622E+003  0.23108729E+003  0.13347776E+003  0.15278968E+003  0.15275854E+003  0.73550620E+002  0.74960147E+002  0.15209642E+003  0.15225965E+003  0.17405054E+003
   368.7970  0.23511802E+003  0.23591363E+003  0.13543643E+003  0.15503280E+003  0.15500031E+003  0.76123873E+002  0.77582684E+002  0.15727044E+003  0.15743466E+003  0.17723657E+003
   369.0476  0.24011532E+003  0.24092586E+003  0.13743850E+003  0.15732567E+003  0.15729176E+003  0.78833958E+002  0.80344675E+002  0.16271855E+003  0.16288383E+003  0.18053041E+003
   369.2982  0.24530929E+003  0.24613516E+003  0.13948526E+003  0.15966979E+003  0.15963438E+003  0.81690705E+002  0.83256138E+002  0.16846035E+003  0.16862678E+003  0.18393792E+003
   369.5489  0.25071200E+003  0.25155363E+003  0.14157806E+003  0.16206670E+003  0.16202969E+003  0.84704839E+002  0.86328001E+002  0.17451720E+003  0.17468488E+003  0.18746541E+003
   369.7995  0.25633654E+003  0.25719437E+003  0.14371827E+003  0.16451798E+003  0.16447928E+003  0.87888076E+002  0.89572208E+002  0.18091244E+003  0.18108149E+003  0.19111971E+003
   370.0501  0.26219715E+003  0.26307165E+003  0.14590734E+003  0.16702531E+003  0.16698482E+003  0.91253240E+002  0.93001825E+002  0.18767160E+003  0.18784213E+003  0.19490819E+003
   370.3008  0.26830933E+003  0.26920098E+003  0.14814678E+003  0.16959041E+003  0.16954801E+003  0.94814384E+002  0.96631178E+002  0.19482266E+003  0.19499479E+003  0.19883887E+003
   370.5514  0.27468997E+003  0.27559929E+003  0.15043813E+003  0.17221507E+003  0.17217064E+003  0.98586939E+002  0.10047599E+003  0.20239631E+003  0.20257018E+003  0.20292046E+003
   370.8020  0.28135754E+003  0.28228507E+003  0.15278302E+003  0.17490114E+003  0.17485456E+003  0.10258788E+003  0.10455356E+003  0.21042629E+003  0.21060205E+003  0.20716242E+003
   371.0526  0.28833225E+003  0.28927853E+003  0.15518311E+003  0.17765057E+003  0.17760169E+003  0.10683589E+003  0.10888294E+003  0.21894977E+003  0.21912758E+003  0.21157508E+003
   371.3033  0.29563624E+003  0.29660188E+003  0.15764017E+003  0.18046537E+003  0.18041403E+003  0.11135162E+003  0.11348516E+003  0.22800772E+003  0.22818778E+003  0.21616976E+003
   371.5539  0.30329387E+003  0.30427949E+003  0.16015599E+003  0.18334763E+003  0.18329367E+003  0.11615788E+003  0.11838348E+003  0.23764546E+003  0.23782797E+003  0.22095880E+003
   371.8045  0.31133196E+003  0.31233821E+003  0.16273248E+003  0.18629953E+003  0.18624277E+003  0.12127997E+003  0.12360368E+003  0.24791317E+003  0.24809835E+003  0.22595581E+003
   372.0551  0.31978009E+003  0.32080767E+003  0.16537160E+003  0.18932334E+003  0.18926357E+003  0.12674596E+003  0.12917437E+003  0.25886654E+003  0.25905464E+003  0.23117571E+003
   372.3058  0.32867099E+003  0.32972064E+003  0.16807538E+003  0.19242141E+003  0.19235843E+003  0.13258709E+003  0.13512739E+003  0.27056749E+003  0.27075878E+003  0.23663501E+003
   372.5564  0.33804096E+003  0.33911345E+003  0.17084597E+003  0.19559622E+003  0.19552978E+003  0.13883822E+003  0.14149825E+003  0.28308505E+003  0.28327984E+003  0.24235192E+003
   372.8070  0.34793031E+003  0.34902647E+003  0.17368557E+003  0.19885032E+003  0.19878017E+003  0.14553830E+003  0.14832666E+003  0.29649631E+003  0.29669495E+003  0.24834665E+003
   373.0576  0.35838399E+003  0.35950470E+003  0.17659650E+003  0.20218640E+003  0.20211224E+003  0.15273096E+003  0.15565710E+003  0.31088762E+003  0.31109048E+003  0.25464168E+003
   373.3083  0.36945218E+003  0.37059838E+003  0.17958117E+003  0.20560723E+003  0.20552876E+003  0.16046523E+003  0.16353952E+003  0.32635590E+003  0.32656342E+003  0.26126204E+003
   373.5589  0.38119112E+003  0.38236381E+003  0.18264208E+003  0.20911574E+003  0.20903260E+003  0.16879633E+003  0.17203020E+003  0.34301023E+003  0.34322288E+003  0.26823573E+003
   373.8095  0.39366395E+003  0.39486421E+003  0.18578185E+003  0.21271496E+003  0.21262677E+003  0.17778661E+003  0.18119269E+003  0.36097370E+003  0.36119202E+003  0.27559414E+003
   374.0602  0.40694183E+003  0.40817081E+003  0.18900322E+003  0.21640807E+003  0.21631440E+003  0.18750669E+003  0.19109896E+003  0.38038560E+003  0.38061021E+003  0.28337258E+003
   374.3108  0.42110517E+003  0.42236411E+003  0.19230903E+003  0.22019838E+003  0.22009877E+003  0.19803678E+003  0.20183076E+003  0.40140405E+003  0.40163563E+003  0.29161091E+003
   374.5614  0.43624513E+003  0.43753537E+003  0.19570226E+003  0.22408938E+003  0.22398329E+003  0.20946829E+003  0.21348125E+003  0.42420901E+003  0.42444836E+003  0.30035426E+003
   374.8120  0.45246540E+003  0.45378838E+003  0.19918602E+003  0.22808468E+003  0.22797152E+003  0.22190568E+003  0.22615688E+003  0.44900607E+003  0.44925407E+003  0.30965391E+003
   375.0627  0.46988431E+003  0.47124162E+003  0.20276355E+003  0.23218809E+003  0.23206721E+003  0.23546878E+003  0.23997979E+003  0.47603076E+003  0.47628845E+003  0.31956836E+003
   375.3133  0.48863745E+003  0.49003080E+003  0.20643826E+003  0.23640360E+003  0.23627425E+003  0.25029550E+003  0.25509054E+003  0.50555395E+003  0.50582249E+003  0.33016456E+003
   375.5639  0.50888069E+003  0.51031196E+003  0.21021369E+003  0.24073538E+003  0.24059673E+003  0.26654517E+003  0.27165148E+003  0.53788822E+003  0.53816898E+003  0.34151951E+003
   375.8145  0.53079397E+003  0.53226522E+003  0.21409356E+003  0.24518781E+003  0.24503891E+003  0.28440255E+003  0.28985095E+003  0.57339571E+003  0.57369026E+003  0.35372207E+003
   376.0652  0.55458585E+003  0.55609935E+003  0.21808175E+003  0.24976550E+003  0.24960528E+003  0.30408278E+003  0.30990818E+003  0.61249762E+003  0.61280776E+003  0.36687526E+003
   376.3158  0.58049910E+003  0.58205736E+003  0.22218234E+003  0.25447328E+003  0.25430052E+003  0.32583740E+003  0.33207954E+003  0.65568586E+003  0.65601373E+003  0.38109903E+003
   376.5664  0.60881754E+003  0.61042336E+003  0.22639959E+003  0.25931625E+003  0.25912955E+003  0.34996182E+003  0.35666610E+003  0.70353747E+003  0.70388554E+003  0.39653373E+003
   376.8170  0.63987457E+003  0.64153107E+003  0.23073797E+003  0.26429977E+003  0.26409752E+003  0.37680455E+003  0.38402305E+003  0.75673237E+003  0.75710358E+003  0.41334438E+003
   377.0677  0.67406367E+003  0.67577436E+003  0.23520216E+003  0.26942949E+003  0.26920985E+003  0.40677871E+003  0.41457142E+003  0.81607551E+003  0.81647331E+003  0.43172594E+003
