#Raman spectra
#Laser energy   2.78 eV
#Raman shift (cm-1), Raman Spectra (XX,YY,ZZ,s+s+,s-s-,XY,YX,s+s-,s-s+,nonpol)
   350.0000  0.19179283E+003  0.18436969E+003  0.39478274E+002  0.60786508E+002  0.61176583E+002  0.12036565E+003  0.12212622E+003  0.24821171E+003  0.24847960E+003  0.77659893E+002
   350.2506  0.19429092E+003  0.18677685E+003  0.39853914E+002  0.61365457E+002  0.61759014E+002  0.12220651E+003  0.12399409E+003  0.25193865E+003  0.25220524E+003  0.78663095E+002
   350.5013  0.19684146E+003  0.18923463E+003  0.40234940E+002  0.61952720E+002  0.62349802E+002  0.12408988E+003  0.12590510E+003  0.25575165E+003  0.25601691E+003  0.79688150E+002
   350.7519  0.19944599E+003  0.19174451E+003  0.40621454E+002  0.62548457E+002  0.62949109E+002  0.12601710E+003  0.12786060E+003  0.25965336E+003  0.25991728E+003  0.80735691E+002
   351.0025  0.20210607E+003  0.19430799E+003  0.41013563E+002  0.63152831E+002  0.63557099E+002  0.12798954E+003  0.12986197E+003  0.26364655E+003  0.26390910E+003  0.81806373E+002
   351.2531  0.20482335E+003  0.19692667E+003  0.41411375E+002  0.63766011E+002  0.64173941E+002  0.13000861E+003  0.13191067E+003  0.26773409E+003  0.26799525E+003  0.82900878E+002
   351.5038  0.20759952E+003  0.19960219E+003  0.41815001E+002  0.64388169E+002  0.64799806E+002  0.13207579E+003  0.13400819E+003  0.27191899E+003  0.27217873E+003  0.84019913E+002
   351.7544  0.21043634E+003  0.20233625E+003  0.42224555E+002  0.65019481E+002  0.65434874E+002  0.13419264E+003  0.13615610E+003  0.27620434E+003  0.27646263E+003  0.85164214E+002
   352.0050  0.21333564E+003  0.20513061E+003  0.42640154E+002  0.65660127E+002  0.66079323E+002  0.13636074E+003  0.13835603E+003  0.28059337E+003  0.28085020E+003  0.86334544E+002
   352.2556  0.21629933E+003  0.20798712E+003  0.43061917E+002  0.66310293E+002  0.66733341E+002  0.13858177E+003  0.14060966E+003  0.28508946E+003  0.28534478E+003  0.87531697E+002
   352.5063  0.21932939E+003  0.21090768E+003  0.43489966E+002  0.66970168E+002  0.67397118E+002  0.14085746E+003  0.14291875E+003  0.28969610E+003  0.28994989E+003  0.88756498E+002
   352.7569  0.22242786E+003  0.21389428E+003  0.43924428E+002  0.67639947E+002  0.68070849E+002  0.14318962E+003  0.14528514E+003  0.29441694E+003  0.29466917E+003  0.90009805E+002
   353.0075  0.22559688E+003  0.21694899E+003  0.44365430E+002  0.68319829E+002  0.68754734E+002  0.14558013E+003  0.14771074E+003  0.29925578E+003  0.29950641E+003  0.91292513E+002
   353.2581  0.22883869E+003  0.22007395E+003  0.44813105E+002  0.69010018E+002  0.69448978E+002  0.14803095E+003  0.15019754E+003  0.30421656E+003  0.30446558E+003  0.92605549E+002
   353.5088  0.23215558E+003  0.22327140E+003  0.45267588E+002  0.69710725E+002  0.70153792E+002  0.15054413E+003  0.15274761E+003  0.30930343E+003  0.30955078E+003  0.93949882E+002
   353.7594  0.23554997E+003  0.22654366E+003  0.45729017E+002  0.70422164E+002  0.70869391E+002  0.15312180E+003  0.15536312E+003  0.31452067E+003  0.31476632E+003  0.95326520E+002
   354.0100  0.23902436E+003  0.22989316E+003  0.46197536E+002  0.71144556E+002  0.71595997E+002  0.15576617E+003  0.15804632E+003  0.31987277E+003  0.32011669E+003  0.96736512E+002
   354.2607  0.24258136E+003  0.23332241E+003  0.46673289E+002  0.71878126E+002  0.72333837E+002  0.15847958E+003  0.16079956E+003  0.32536440E+003  0.32560655E+003  0.98180952E+002
   354.5113  0.24622370E+003  0.23683406E+003  0.47156426E+002  0.72623108E+002  0.73083143E+002  0.16126443E+003  0.16362531E+003  0.33100046E+003  0.33124079E+003  0.99660981E+002
   354.7619  0.24995421E+003  0.24043083E+003  0.47647102E+002  0.73379738E+002  0.73844154E+002  0.16412326E+003  0.16652612E+003  0.33678603E+003  0.33702450E+003  0.10117779E+003
   355.0125  0.25377585E+003  0.24411559E+003  0.48145473E+002  0.74148263E+002  0.74617116E+002  0.16705872E+003  0.16950467E+003  0.34272644E+003  0.34296301E+003  0.10273262E+003
   355.2632  0.25769170E+003  0.24789132E+003  0.48651702E+002  0.74928931E+002  0.75402281E+002  0.17007355E+003  0.17256378E+003  0.34882725E+003  0.34906188E+003  0.10432676E+003
   355.5138  0.26170498E+003  0.25176112E+003  0.49165953E+002  0.75722002E+002  0.76199906E+002  0.17317065E+003  0.17570635E+003  0.35509429E+003  0.35532691E+003  0.10596157E+003
   355.7644  0.26581906E+003  0.25572826E+003  0.49688398E+002  0.76527740E+002  0.77010257E+002  0.17635302E+003  0.17893547E+003  0.36153362E+003  0.36176420E+003  0.10763846E+003
   356.0150  0.27003744E+003  0.25979612E+003  0.50219212E+002  0.77346415E+002  0.77833607E+002  0.17962384E+003  0.18225432E+003  0.36815161E+003  0.36838009E+003  0.10935890E+003
   356.2657  0.27436379E+003  0.26396825E+003  0.50758574E+002  0.78178307E+002  0.78670234E+002  0.18298639E+003  0.18566626E+003  0.37495492E+003  0.37518125E+003  0.11112444E+003
   356.5163  0.27880196E+003  0.26824836E+003  0.51306669E+002  0.79023703E+002  0.79520426E+002  0.18644415E+003  0.18917480E+003  0.38195051E+003  0.38217463E+003  0.11293670E+003
   356.7669  0.28335593E+003  0.27264032E+003  0.51863686E+002  0.79882897E+002  0.80384479E+002  0.19000073E+003  0.19278362E+003  0.38914569E+003  0.38936754E+003  0.11479736E+003
   357.0175  0.28802992E+003  0.27714818E+003  0.52429819E+002  0.80756190E+002  0.81262695E+002  0.19365993E+003  0.19649657E+003  0.39654810E+003  0.39676761E+003  0.11670819E+003
   357.2682  0.29282831E+003  0.28177620E+003  0.53005270E+002  0.81643894E+002  0.82155385E+002  0.19742573E+003  0.20031769E+003  0.40416576E+003  0.40438288E+003  0.11867103E+003
   357.5188  0.29775571E+003  0.28652881E+003  0.53590242E+002  0.82546329E+002  0.83062871E+002  0.20130230E+003  0.20425121E+003  0.41200709E+003  0.41222174E+003  0.12068783E+003
   357.7694  0.30281691E+003  0.29141067E+003  0.54184948E+002  0.83463822E+002  0.83985480E+002  0.20529404E+003  0.20830159E+003  0.42008090E+003  0.42029301E+003  0.12276063E+003
   358.0201  0.30801699E+003  0.29642666E+003  0.54789604E+002  0.84396710E+002  0.84923552E+002  0.20940554E+003  0.21247349E+003  0.42839646E+003  0.42860596E+003  0.12489154E+003
   358.2707  0.31336122E+003  0.30158191E+003  0.55404434E+002  0.85345342E+002  0.85877433E+002  0.21364162E+003  0.21677182E+003  0.43696349E+003  0.43717030E+003  0.12708281E+003
   358.5213  0.31885516E+003  0.30688177E+003  0.56029666E+002  0.86310074E+002  0.86847482E+002  0.21800738E+003  0.22120172E+003  0.44579222E+003  0.44599625E+003  0.12933678E+003
   358.7719  0.32450464E+003  0.31233189E+003  0.56665537E+002  0.87291272E+002  0.87834067E+002  0.22250815E+003  0.22576862E+003  0.45489340E+003  0.45509457E+003  0.13165591E+003
   359.0226  0.33031578E+003  0.31793818E+003  0.57312290E+002  0.88289315E+002  0.88837564E+002  0.22714954E+003  0.23047822E+003  0.46427831E+003  0.46447653E+003  0.13404280E+003
   359.2732  0.33629501E+003  0.32370687E+003  0.57970174E+002  0.89304592E+002  0.89858365E+002  0.23193747E+003  0.23533651E+003  0.47395887E+003  0.47415404E+003  0.13650017E+003
   359.5238  0.34244910E+003  0.32964449E+003  0.58639446E+002  0.90337502E+002  0.90896869E+002  0.23687817E+003  0.24034981E+003  0.48394758E+003  0.48413960E+003  0.13903087E+003
   359.7744  0.34878515E+003  0.33575791E+003  0.59320370E+002  0.91388457E+002  0.91953489E+002  0.24197818E+003  0.24552477E+003  0.49425764E+003  0.49444641E+003  0.14163792E+003
   360.0251  0.35531065E+003  0.34205437E+003  0.60013218E+002  0.92457880E+002  0.93028649E+002  0.24724442E+003  0.25086841E+003  0.50490296E+003  0.50508837E+003  0.14432450E+003
   360.2757  0.36203348E+003  0.34854150E+003  0.60718269E+002  0.93546209E+002  0.94122785E+002  0.25268419E+003  0.25638812E+003  0.51589818E+003  0.51608012E+003  0.14709393E+003
   360.5263  0.36896194E+003  0.35522733E+003  0.61435813E+002  0.94653893E+002  0.95236348E+002  0.25830517E+003  0.26209173E+003  0.52725880E+003  0.52743713E+003  0.14994975E+003
   360.7769  0.37610479E+003  0.36212031E+003  0.62166146E+002  0.95781394E+002  0.96369801E+002  0.26411550E+003  0.26798746E+003  0.53900113E+003  0.53917573E+003  0.15289567E+003
   361.0276  0.38347125E+003  0.36922938E+003  0.62909573E+002  0.96929190E+002  0.97523620E+002  0.27012375E+003  0.27408404E+003  0.55114243E+003  0.55131317E+003  0.15593561E+003
   361.2782  0.39107107E+003  0.37656395E+003  0.63666410E+002  0.98097772E+002  0.98698299E+002  0.27633902E+003  0.28039066E+003  0.56370095E+003  0.56386768E+003  0.15907371E+003
   361.5288  0.39891455E+003  0.38413399E+003  0.64436979E+002  0.99287646E+002  0.99894342E+002  0.28277089E+003  0.28691709E+003  0.57669598E+003  0.57685855E+003  0.16231434E+003
   361.7794  0.40701255E+003  0.39195001E+003  0.65221617E+002  0.10049934E+003  0.10111227E+003  0.28942953E+003  0.29367362E+003  0.59014793E+003  0.59030618E+003  0.16566213E+003
   362.0301  0.41537658E+003  0.40002314E+003  0.66020666E+002  0.10173338E+003  0.10235263E+003  0.29632570E+003  0.30067119E+003  0.60407842E+003  0.60423218E+003  0.16912197E+003
   362.2807  0.42401881E+003  0.40836514E+003  0.66834482E+002  0.10299033E+003  0.10361597E+003  0.30347083E+003  0.30792137E+003  0.61851038E+003  0.61865948E+003  0.17269905E+003
   362.5313  0.43295213E+003  0.41698849E+003  0.67663430E+002  0.10427076E+003  0.10490286E+003  0.31087701E+003  0.31543644E+003  0.63346810E+003  0.63361235E+003  0.17639886E+003
   362.7820  0.44219018E+003  0.42590638E+003  0.68507889E+002  0.10557526E+003  0.10621389E+003  0.31855708E+003  0.32322945E+003  0.64897738E+003  0.64911657E+003  0.18022721E+003
   363.0326  0.45174746E+003  0.43513283E+003  0.69368247E+002  0.10690445E+003  0.10754968E+003  0.32652470E+003  0.33131423E+003  0.66506559E+003  0.66519952E+003  0.18419028E+003
   363.2832  0.46163933E+003  0.44468271E+003  0.70244906E+002  0.10825894E+003  0.10891084E+003  0.33479436E+003  0.33970550E+003  0.68176184E+003  0.68189028E+003  0.18829463E+003
   363.5338  0.47188210E+003  0.45457178E+003  0.71138280E+002  0.10963940E+003  0.11029804E+003  0.34338150E+003  0.34841892E+003  0.69909707E+003  0.69921979E+003  0.19254723E+003
   363.7845  0.48249312E+003  0.46481684E+003  0.72048795E+002  0.11104648E+003  0.11171193E+003  0.35230253E+003  0.35747115E+003  0.71710424E+003  0.71722099E+003  0.19695548E+003
   364.0351  0.49349084E+003  0.47543572E+003  0.72976895E+002  0.11248090E+003  0.11315322E+003  0.36157494E+003  0.36687995E+003  0.73581842E+003  0.73592892E+003  0.20152728E+003
   364.2857  0.50489488E+003  0.48644743E+003  0.73923033E+002  0.11394335E+003  0.11462261E+003  0.37121740E+003  0.37666423E+003  0.75527700E+003  0.75538099E+003  0.20627102E+003
   364.5363  0.51672617E+003  0.49787219E+003  0.74887680E+002  0.11543458E+003  0.11612084E+003  0.38124981E+003  0.38684421E+003  0.77551991E+003  0.77561706E+003  0.21119565E+003
   364.7870  0.52900702E+003  0.50973159E+003  0.75871321E+002  0.11695535E+003  0.11764867E+003  0.39169342E+003  0.39744144E+003  0.79658972E+003  0.79667973E+003  0.21631073E+003
   365.0376  0.54176121E+003  0.52204865E+003  0.76874460E+002  0.11850646E+003  0.11920690E+003  0.40257096E+003  0.40847899E+003  0.81853197E+003  0.81861449E+003  0.22162645E+003
   365.2882  0.55501418E+003  0.53484797E+003  0.77897613E+002  0.12008872E+003  0.12079633E+003  0.41390673E+003  0.41998152E+003  0.84139535E+003  0.84147001E+003  0.22715373E+003
   365.5388  0.56879311E+003  0.54815584E+003  0.78941316E+002  0.12170297E+003  0.12241780E+003  0.42572676E+003  0.43197545E+003  0.86523199E+003  0.86529841E+003  0.23290422E+003
   365.7895  0.58312708E+003  0.56200041E+003  0.80006123E+002  0.12335010E+003  0.12407220E+003  0.43805896E+003  0.44448909E+003  0.89009774E+003  0.89015550E+003  0.23889041E+003
   366.0401  0.59804724E+003  0.57641182E+003  0.81092607E+002  0.12503100E+003  0.12576041E+003  0.45093326E+003  0.45755280E+003  0.91605253E+003  0.91610118E+003  0.24512569E+003
   366.2907  0.61358700E+003  0.59142238E+003  0.82201360E+002  0.12674662E+003  0.12748337E+003  0.46438179E+003  0.47119921E+003  0.94316066E+003  0.94319973E+003  0.25162442E+003
   366.5414  0.62978219E+003  0.60706679E+003  0.83332994E+002  0.12849792E+003  0.12924205E+003  0.47843912E+003  0.48546339E+003  0.97149127E+003  0.97152024E+003  0.25840204E+003
   366.7920  0.64667135E+003  0.62338230E+003  0.84488142E+002  0.13028591E+003  0.13103744E+003  0.49314242E+003  0.50038305E+003  0.10011187E+004  0.10011371E+004  0.26547511E+003
   367.0426  0.66429589E+003  0.64040901E+003  0.85667461E+002  0.13211163E+003  0.13287058E+003  0.50853176E+003  0.51599885E+003  0.10321231E+004  0.10321302E+004  0.27286150E+003
   367.2932  0.68270042E+003  0.65819007E+003  0.86871628E+002  0.13397616E+003  0.13474254E+003  0.52465032E+003  0.53235463E+003  0.10645908E+004  0.10645860E+004  0.28058044E+003
   367.5439  0.70193301E+003  0.67677201E+003  0.88101346E+002  0.13588062E+003  0.13665443E+003  0.54154476E+003  0.54949770E+003  0.10986149E+004  0.10985976E+004  0.28865268E+003
   367.7945  0.72204556E+003  0.69620504E+003  0.89357343E+002  0.13782616E+003  0.13860739E+003  0.55926548E+003  0.56747923E+003  0.11342962E+004  0.11342656E+004  0.29710063E+003
   368.0451  0.74309412E+003  0.71654341E+003  0.90640373E+002  0.13981401E+003  0.14060263E+003  0.57786704E+003  0.58635458E+003  0.11717436E+004  0.11716989E+004  0.30594852E+003
   368.2957  0.76513936E+003  0.73784582E+003  0.91951216E+002  0.14184539E+003  0.14264137E+003  0.59740858E+003  0.60618375E+003  0.12110752E+004  0.12110156E+004  0.31522260E+003
   368.5464  0.78824696E+003  0.76017584E+003  0.93290681E+002  0.14392162E+003  0.14472491E+003  0.61795422E+003  0.62703182E+003  0.12524189E+004  0.12523434E+004  0.32495131E+003
   368.7970  0.81248820E+003  0.78360245E+003  0.94659607E+002  0.14604404E+003  0.14685457E+003  0.63957365E+003  0.64896950E+003  0.12959137E+004  0.12958215E+004  0.33516554E+003
   369.0476  0.83794048E+003  0.80820054E+003  0.96058864E+002  0.14821405E+003  0.14903174E+003  0.66234269E+003  0.67207372E+003  0.13417109E+004  0.13416007E+004  0.34589885E+003
   369.2982  0.86468797E+003  0.83405159E+003  0.97489355E+002  0.15043310E+003  0.15125785E+003  0.68634391E+003  0.69642829E+003  0.13899751E+004  0.13898457E+004  0.35718779E+003
   369.5489  0.89282237E+003  0.86124434E+003  0.98952013E+002  0.15270272E+003  0.15353439E+003  0.71166742E+003  0.72212462E+003  0.14408857E+004  0.14407360E+004  0.36907221E+003
   369.7995  0.92244371E+003  0.88987560E+003  0.10044781E+003  0.15502447E+003  0.15586292E+003  0.73841166E+003  0.74926262E+003  0.14946389E+004  0.14944673E+004  0.38159560E+003
   370.0501  0.95366127E+003  0.92005112E+003  0.10197776E+003  0.15739999E+003  0.15824504E+003  0.76668436E+003  0.77795159E+003  0.15514491E+004  0.15512542E+004  0.39480553E+003
   370.3008  0.98659463E+003  0.95188664E+003  0.10354290E+003  0.15983100E+003  0.16068244E+003  0.79660360E+003  0.80831137E+003  0.16115513E+004  0.16113315E+004  0.40875413E+003
   370.5514  0.10213749E+004  0.98550903E+003  0.10514432E+003  0.16231928E+003  0.16317685E+003  0.82829901E+003  0.84047350E+003  0.16752034E+004  0.16749568E+004  0.42349857E+003
   370.8020  0.10581459E+004  0.10210576E+004  0.10678315E+003  0.16486667E+003  0.16573010E+003  0.86191317E+003  0.87458264E+003  0.17426889E+004  0.17424135E+004  0.43910170E+003
   371.0526  0.10970659E+004  0.10586855E+004  0.10846057E+003  0.16747511E+003  0.16834407E+003  0.89760315E+003  0.91079821E+003  0.18143200E+004  0.18140136E+004  0.45563270E+003
   371.3033  0.11383095E+004  0.10985615E+004  0.11017779E+003  0.17014664E+003  0.17102074E+003  0.93554234E+003  0.94929612E+003  0.18904410E+004  0.18901012E+004  0.47316791E+003
   371.5539  0.11820691E+004  0.11408721E+004  0.11193608E+003  0.17288334E+003  0.17376216E+003  0.97592247E+003  0.99027094E+003  0.19714325E+004  0.19710567E+004  0.49179170E+003
   371.8045  0.12285578E+004  0.11858235E+004  0.11373677E+003  0.17568744E+003  0.17657048E+003  0.10189560E+004  0.10339383E+004  0.20577162E+004  0.20573014E+004  0.51159752E+003
   372.0551  0.12780116E+004  0.12336441E+004  0.11558121E+003  0.17856124E+003  0.17944792E+003  0.10648788E+004  0.10805375E+004  0.21497599E+004  0.21493028E+004  0.53268905E+003
   372.3058  0.13306928E+004  0.12845877E+004  0.11747085E+003  0.18150716E+003  0.18239683E+003  0.11139534E+004  0.11303349E+004  0.22480839E+004  0.22475810E+004  0.55518164E+003
   372.5564  0.13868933E+004  0.13389371E+004  0.11940717E+003  0.18452772E+003  0.18541966E+003  0.11664726E+004  0.11836277E+004  0.23532681E+004  0.23527153E+004  0.57920383E+003
   372.8070  0.14469390E+004  0.13970075E+004  0.12139172E+003  0.18762559E+003  0.18851894E+003  0.12227636E+004  0.12407479E+004  0.24659602E+004  0.24653532E+004  0.60489928E+003
   373.0576  0.15111941E+004  0.14591515E+004  0.12342611E+003  0.19080354E+003  0.19169736E+003  0.12831931E+004  0.13020676E+004  0.25868858E+004  0.25862195E+004  0.63242885E+003
   373.3083  0.15800671E+004  0.15257646E+004  0.12551202E+003  0.19406452E+003  0.19495772E+003  0.13481729E+004  0.13680046E+004  0.27168591E+004  0.27161279E+004  0.66197319E+003
   373.5589  0.16540172E+004  0.15972913E+004  0.12765121E+003  0.19741160E+003  0.19830294E+003  0.14181670E+004  0.14390299E+004  0.28567966E+004  0.28559942E+004  0.69373567E+003
   373.8095  0.17335620E+004  0.16742326E+004  0.12984550E+003  0.20084803E+003  0.20173611E+003  0.14936992E+004  0.15156749E+004  0.30077325E+004  0.30068519E+004  0.72794585E+003
   374.0602  0.18192864E+004  0.17571546E+004  0.13209681E+003  0.20437725E+003  0.20526047E+003  0.15753628E+004  0.15985416E+004  0.31708372E+004  0.31698705E+004  0.76486364E+003
   374.3108  0.19118535E+004  0.18466994E+004  0.13440711E+003  0.20800287E+003  0.20887940E+003  0.16638317E+004  0.16883141E+004  0.33474391E+004  0.33463773E+004  0.80478417E+003
   374.5614  0.20120173E+004  0.19435967E+004  0.13677850E+003  0.21172874E+003  0.21259651E+003  0.17598738E+004  0.17857713E+004  0.35390506E+004  0.35378834E+004  0.84804357E+003
   374.8120  0.21206378E+004  0.20486790E+004  0.13921314E+003  0.21555892E+003  0.21641555E+003  0.18643669E+004  0.18918041E+004  0.37473988E+004  0.37461145E+004  0.89502598E+003
   375.0627  0.22386991E+004  0.21628991E+004  0.14171330E+003  0.21949774E+003  0.22034052E+003  0.19783176E+004  0.20074339E+004  0.39744630E+004  0.39730483E+004  0.94617183E+003
   375.3133  0.23673313E+004  0.22873510E+004  0.14428134E+003  0.22354981E+003  0.22437564E+003  0.21028846E+004  0.21338365E+004  0.42225192E+004  0.42209588E+004  0.10019879E+004
   375.5639  0.25078372E+004  0.24232957E+004  0.14691975E+003  0.22772007E+003  0.22852537E+003  0.22394065E+004  0.22723703E+004  0.44941940E+004  0.44924702E+004  0.10630596E+004
   375.8145  0.26617235E+004  0.25721919E+004  0.14963112E+003  0.23201379E+003  0.23279446E+003  0.23894356E+004  0.24246103E+004  0.47925303E+004  0.47906228E+004  0.11300654E+004
   376.0652  0.28307407E+004  0.27357341E+004  0.15241816E+003  0.23643665E+003  0.23718797E+003  0.25547792E+004  0.25923907E+004  0.51210676E+004  0.51189526E+004  0.12037954E+004
   376.3158  0.30169297E+004  0.29158983E+004  0.15528371E+003  0.24099479E+003  0.24171130E+003  0.27375509E+004  0.27778560E+004  0.54839395E+004  0.54815894E+004  0.12851731E+004
   376.5664  0.32226817E+004  0.31149990E+004  0.15823074E+003  0.24569484E+003  0.24637021E+003  0.29402323E+004  0.29835247E+004  0.58859950E+004  0.58833776E+004  0.13752828E+004
   376.8170  0.34508094E+004  0.33357593E+004  0.16126238E+003  0.25054404E+003  0.25117092E+003  0.31657516E+004  0.32123679E+004  0.63329480E+004  0.63300252E+004  0.14754035E+004
   377.0677  0.37046378E+004  0.35813982E+004  0.16438187E+003  0.25555031E+003  0.25612012E+003  0.34175796E+004  0.34679077E+004  0.68315630E+004  0.68282898E+004  0.15870510E+004
